1042.414189	693.2000122
1042.980685	695.4000244
1043.547124	693.4000244
1044.113505	695.7999878
1044.679828	693.4000244
1045.246093	690.4000244
1045.8123	690.2000122
1046.378449	689.4000244
1046.94454	690.2000122
1047.510573	690.2000122
1048.076548	690.5999756
1048.642465	693.2000122
1049.208325	689.2000122
1049.774126	690.4000244
1050.339869	689.0
1050.905555	688.7999878
1051.471183	683.0
1052.036752	684.4000244
1052.602264	687.0
1053.167718	685.7999878
1053.733114	686.5999756
1054.298452	685.5999756
1054.863733	686.7999878
1055.428955	686.5999756
1055.994119	686.7999878
1056.559226	681.7999878
1057.124275	686.5999756
1057.689266	686.2000122
1058.254199	681.7999878
1058.819074	684.2000122
1059.383891	686.4000244
1059.94865	687.0
1060.513352	684.4000244
1061.077996	685.5999756
1061.642582	681.7999878
1062.20711	683.5999756
1062.77158	686.4000244
1063.335992	683.7999878
1063.900347	686.4000244
1064.464643	683.2000122
1065.028882	682.4000244
1065.593063	687.5999756
1066.157187	686.5999756
1066.721252	681.4000244
1067.28526	683.2000122
1067.84921	683.5999756
1068.413102	681.5999756
1068.976936	682.4000244
1069.540713	684.2000122
1070.104431	692.2000122
1070.668092	683.2000122
1071.231696	685.5999756
1071.795241	686.5999756
1072.358729	682.0
1072.922159	680.4000244
1073.485531	685.7999878
1074.048845	681.5999756
1074.612102	682.7999878
1075.175301	682.0
1075.738442	684.7999878
1076.301525	685.7999878
1076.864551	683.7999878
1077.427519	684.2000122
1077.990429	682.2000122
1078.553281	684.0
1079.116076	680.7999878
1079.678813	683.4000244
1080.241492	682.4000244
1080.804114	681.7999878
1081.366678	682.0
1081.929184	682.7999878
1082.491633	685.0
1083.054024	683.2000122
1083.616357	686.2000122
1084.178632	683.4000244
1084.74085	685.4000244
1085.30301	688.4000244
1085.865113	679.4000244
1086.427158	685.7999878
1086.989145	681.7999878
1087.551074	683.4000244
1088.112946	684.7999878
1088.67476	683.5999756
1089.236517	684.5999756
1089.798216	684.0
1090.359857	685.0
1090.92144	681.2000122
1091.482966	684.2000122
1092.044435	685.0
1092.605845	685.4000244
1093.167199	681.2000122
1093.728494	688.0
1094.289732	684.2000122
1094.850912	685.7999878
1095.412035	692.7999878
1095.9731	686.2000122
1096.534107	684.2000122
1097.095057	692.2000122
1097.65595	685.5999756
1098.216784	683.0
1098.777561	683.5999756
1099.338281	683.7999878
1099.898943	680.4000244
1100.459547	685.2000122
1101.020094	683.2000122
1101.580584	683.4000244
1102.141015	683.7999878
1102.701389	680.7999878
1103.261706	684.5999756
1103.821965	685.0
1104.382167	683.0
1104.942311	683.0
1105.502397	682.0
1106.062426	684.0
1106.622398	682.2000122
1107.182312	686.4000244
1107.742168	684.5999756
1108.301967	685.0
1108.861708	684.4000244
1109.421392	683.0
1109.981019	680.5999756
1110.540587	684.0
1111.100099	681.7999878
1111.659553	685.0
1112.218949	685.5999756
1112.778288	688.2000122
1113.33757	681.0
1113.896794	681.4000244
1114.45596	685.0
1115.015069	684.5999756
1115.574121	685.0
1116.133115	682.0
1116.692052	683.4000244
1117.250931	685.4000244
1117.809753	686.4000244
1118.368517	682.2000122
1118.927224	684.5999756
1119.485873	683.7999878
1120.044465	683.4000244
1120.603	686.5999756
1121.161477	683.7999878
1121.719897	682.4000244
1122.278259	680.2000122
1122.836564	683.4000244
1123.394812	686.7999878
1123.953002	680.4000244
1124.511135	684.4000244
1125.06921	685.5999756
1125.627228	683.4000244
1126.185189	679.7999878
1126.743092	685.0
1127.300938	679.7999878
1127.858726	682.0
1128.416457	680.2000122
1128.974131	683.7999878
1129.531748	680.5999756
1130.089307	684.4000244
1130.646808	686.4000244
1131.204252	684.7999878
1131.761639	685.0
1132.318969	680.4000244
1132.876241	681.2000122
1133.433456	682.7999878
1133.990614	685.5999756
1134.547714	681.7999878
1135.104757	685.4000244
1135.661743	685.7999878
1136.218671	684.0
1136.775542	686.5999756
1137.332356	681.7999878
1137.889112	681.2000122
1138.445811	683.4000244
1139.002453	686.5999756
1139.559037	688.0
1140.115565	681.2000122
1140.672035	682.5999756
1141.228447	685.5999756
1141.784803	682.2000122
1142.341101	683.4000244
1142.897342	681.5999756
1143.453525	682.5999756
1144.009651	686.4000244
1144.565721	685.2000122
1145.121732	682.5999756
1145.677687	685.7999878
1146.233584	680.2000122
1146.789424	683.4000244
1147.345207	685.0
1147.900933	684.7999878
1148.456601	683.5999756
1149.012212	681.0
1149.567766	684.0
1150.123263	683.7999878
1150.678702	684.2000122
1151.234085	682.5999756
1151.78941	685.2000122
1152.344678	686.7999878
1152.899888	682.2000122
1153.455042	685.7999878
1154.010138	684.0
1154.565177	684.2000122
1155.120159	683.4000244
1155.675084	684.0
1156.229951	683.2000122
1156.784762	685.0
1157.339515	681.4000244
1157.894211	686.5999756
1158.44885	684.2000122
1159.003432	682.2000122
1159.557956	682.5999756
1160.112424	685.4000244
1160.666834	688.4000244
1161.221187	685.0
1161.775483	682.7999878
1162.329722	687.7999878
1162.883904	686.2000122
1163.438029	685.4000244
1163.992096	684.0
1164.546107	685.2000122
1165.10006	690.5999756
1165.653956	686.2000122
1166.207795	684.4000244
1166.761577	683.0
1167.315302	683.0
1167.86897	684.0
1168.422581	686.7999878
1168.976134	684.5999756
1169.529631	684.7999878
1170.08307	684.2000122
1170.636453	681.4000244
1171.189778	684.2000122
1171.743046	681.5999756
1172.296257	689.4000244
1172.849412	686.0
1173.402509	679.2000122
1173.955549	684.0
1174.508532	685.2000122
1175.061458	690.0
1175.614327	685.4000244
1176.167138	680.7999878
1176.719893	681.5999756
1177.272591	689.0
1177.825232	682.2000122
1178.377816	684.2000122
1178.930342	683.4000244
1179.482812	686.4000244
1180.035225	682.4000244
1180.587581	685.4000244
1181.139879	684.7999878
1181.692121	682.7999878
1182.244306	687.7999878
1182.796434	684.2000122
1183.348504	681.2000122
1183.900518	684.0
1184.452475	684.7999878
1185.004375	684.4000244
1185.556218	684.5999756
1186.108004	683.2000122
1186.659733	687.0
1187.211405	684.7999878
1187.76302	685.7999878
1188.314578	687.2000122
1188.866079	681.7999878
1189.417523	686.0
1189.96891	684.2000122
1190.520241	682.2000122
1191.071514	686.0
1191.622731	686.0
1192.17389	683.4000244
1192.724993	686.0
1193.276039	702.4000244
1193.827027	685.2000122
1194.377959	683.7999878
1194.928834	684.2000122
1195.479653	685.4000244
1196.030414	684.0
1196.581118	683.7999878
1197.131766	688.0
1197.682356	690.5999756
1198.23289	688.7999878
1198.783367	685.4000244
1199.333786	687.2000122
1199.88415	690.0
1200.434456	683.5999756
1200.984705	684.5999756
1201.534898	680.2000122
1202.085033	684.5999756
1202.635112	684.7999878
1203.185134	683.5999756
1203.735099	686.4000244
1204.285007	683.2000122
1204.834859	685.0
1205.384653	690.0
1205.934391	686.4000244
1206.484072	681.7999878
1207.033696	685.4000244
1207.583263	684.2000122
1208.132774	683.4000244
1208.682228	684.2000122
1209.231624	685.4000244
1209.780965	688.2000122
1210.330248	681.4000244
1210.879474	686.4000244
1211.428644	685.2000122
1211.977757	684.2000122
1212.526813	689.0
1213.075813	687.4000244
1213.624755	683.5999756
1214.173641	684.4000244
1214.72247	685.4000244
1215.271242	684.5999756
1215.819958	689.5999756
1216.368617	686.2000122
1216.917219	685.2000122
1217.465764	682.5999756
1218.014253	685.7999878
1218.562685	687.7999878
1219.11106	687.5999756
1219.659378	686.7999878
1220.20764	685.7999878
1220.755845	685.7999878
1221.303993	688.0
1221.852085	684.7999878
1222.400119	686.2000122
1222.948097	687.7999878
1223.496019	684.5999756
1224.043883	685.7999878
1224.591691	687.2000122
1225.139443	686.5999756
1225.687137	685.2000122
1226.234775	686.5999756
1226.782357	687.2000122
1227.329881	686.5999756
1227.877349	685.5999756
1228.42476	687.5999756
1228.972115	686.4000244
1229.519413	690.0
1230.066654	685.5999756
1230.613839	687.4000244
1231.160967	686.2000122
1231.708038	690.2000122
1232.255053	684.0
1232.802011	685.0
1233.348912	688.4000244
1233.895757	688.7999878
1234.442545	689.7999878
1234.989277	686.4000244
1235.535951	687.7999878
1236.08257	685.4000244
1236.629131	689.5999756
1237.175636	688.7999878
1237.722085	691.2000122
1238.268477	686.2000122
1238.814812	686.5999756
1239.361091	687.4000244
1239.907313	686.5999756
1240.453478	686.2000122
1240.999587	686.4000244
1241.54564	689.0
1242.091636	688.2000122
1242.637575	686.5999756
1243.183457	687.7999878
1243.729284	689.5999756
1244.275053	692.0
1244.820766	692.2000122
1245.366423	688.5999756
1245.912022	688.2000122
1246.457566	690.5999756
1247.003053	689.7999878
1247.548483	688.5999756
1248.093857	689.5999756
1248.639174	688.4000244
1249.184435	690.4000244
1249.729639	687.5999756
1250.274787	691.4000244
1250.819878	690.0
1251.364912	687.5999756
1251.909891	689.0
1252.454812	690.4000244
1252.999677	689.7999878
1253.544486	691.0
1254.089238	690.0
1254.633934	692.5999756
1255.178573	693.0
1255.723156	687.7999878
1256.267682	691.0
1256.812152	695.4000244
1257.356565	699.5999756
1257.900922	702.4000244
1258.445223	697.5999756
1258.989467	699.0
1259.533654	698.2000122
1260.077785	705.5999756
1260.62186	703.4000244
1261.165878	708.0
1261.70984	718.7999878
1262.253745	718.2000122
1262.797594	717.4000244
1263.341386	715.7999878
1263.885123	715.2000122
1264.428802	714.4000244
1264.972425	707.7999878
1265.515992	704.0
1266.059503	704.5999756
1266.602957	702.2000122
1267.146354	698.7999878
1267.689696	698.4000244
1268.23298	699.5999756
1268.776209	697.0
1269.319381	698.7999878
1269.862497	695.2000122
1270.405556	695.4000244
1270.948559	697.7999878
1271.491506	696.5999756
1272.034396	701.7999878
1272.57723	699.2000122
1273.120007	698.2000122
1273.662728	701.4000244
1274.205393	696.2000122
1274.748002	699.0
1275.290554	701.7999878
1275.83305	702.4000244
1276.375489	701.5999756
1276.917872	707.0
1277.460199	706.4000244
1278.00247	706.7999878
1278.544684	709.5999756
1279.086842	719.4000244
1279.628943	725.7999878
1280.170989	743.4000244
1280.712978	777.5999756
1281.25491	840.2000122
1281.796787	1007.799988
1282.338607	1210.199951
1282.880371	1310.400024
1283.422078	1163.400024
1283.963729	956.5999756
1284.505324	835.4000244
1285.046863	778.2000122
1285.588345	745.5999756
1286.129772	731.4000244
1286.671142	722.0
1287.212455	713.2000122
1287.753713	709.5999756
1288.294914	714.4000244
1288.836059	706.4000244
1289.377147	706.5999756
1289.91818	704.7999878
1290.459156	704.4000244
1291.000076	700.4000244
1291.54094	701.4000244
1292.081747	700.5999756
1292.622499	701.7999878
1293.163194	701.0
1293.703833	697.4000244
1294.244415	698.4000244
1294.784942	696.0
1295.325412	700.4000244
1295.865826	696.2000122
1296.406184	695.0
1296.946486	695.2000122
1297.486731	699.5999756
1298.026921	699.5999756
1298.567054	695.7999878
1299.107131	695.7999878
1299.647152	693.4000244
1300.187116	699.0
1300.727025	692.5999756
1301.266877	696.0
1301.806673	693.5999756
1302.346413	694.7999878
1302.886097	694.5999756
1303.425725	692.2000122
1303.965297	690.7999878
1304.504812	693.7999878
1305.044272	693.4000244
1305.583675	699.0
1306.123022	689.4000244
1306.662313	693.0
1307.201548	692.4000244
1307.740727	696.2000122
1308.279849	692.4000244
1308.818916	693.4000244
1309.357926	693.2000122
1309.896881	690.5999756
1310.435779	692.5999756
1310.974621	692.5999756
1311.513407	689.4000244
1312.052137	692.7999878
1312.590811	692.4000244
1313.129429	693.2000122
1313.667991	690.7999878
1314.206497	693.0
1314.744946	690.7999878
1315.28334	694.5999756
1315.821678	692.2000122
1316.359959	691.0
1316.898184	691.0
1317.436354	690.7999878
1317.974467	687.7999878
1318.512525	692.4000244
1319.050526	692.7999878
1319.588471	689.0
1320.12636	691.2000122
1320.664194	693.2000122
1321.201971	694.5999756
1321.739692	689.2000122
1322.277357	692.2000122
1322.814967	691.0
1323.35252	692.4000244
1323.890017	693.4000244
1324.427458	690.7999878
1324.964843	693.4000244
1325.502173	693.2000122
1326.039446	695.0
1326.576663	693.5999756
1327.113824	689.4000244
1327.65093	687.2000122
1328.187979	691.2000122
1328.724972	691.5999756
1329.26191	694.5999756
1329.798791	690.5999756
1330.335617	690.2000122
1330.872386	693.5999756
1331.4091	690.0
1331.945758	688.5999756
1332.48236	688.5999756
1333.018905	687.7999878
1333.555395	695.4000244
1334.091829	689.0
1334.628207	690.5999756
1335.164529	692.2000122
1335.700796	689.4000244
1336.237006	692.0
1336.77316	692.2000122
1337.309259	692.4000244
1337.845301	693.5999756
1338.381288	690.7999878
1338.917219	690.5999756
1339.453094	691.5999756
1339.988913	694.4000244
1340.524676	692.4000244
1341.060383	692.2000122
1341.596034	691.4000244
1342.13163	692.5999756
1342.66717	691.4000244
1343.202653	690.4000244
1343.738081	690.2000122
1344.273453	696.0
1344.80877	694.7999878
1345.34403	688.2000122
1345.879235	692.7999878
1346.414383	690.4000244
1346.949476	692.4000244
1347.484513	690.0
1348.019494	690.5999756
1348.55442	687.0
1349.089289	689.5999756
1349.624103	690.4000244
1350.158861	691.7999878
1350.693563	691.7999878
1351.228209	690.5999756
1351.7628	693.7999878
1352.297334	694.0
1352.831813	692.7999878
1353.366236	686.7999878
1353.900604	691.2000122
1354.434915	690.5999756
1354.969171	691.4000244
1355.503371	692.4000244
1356.037515	689.0
1356.571604	691.2000122
1357.105636	693.5999756
1357.639613	689.5999756
1358.173535	694.2000122
1358.7074	696.0
1359.24121	692.5999756
1359.774964	695.0
1360.308662	691.2000122
1360.842304	693.5999756
1361.375891	693.4000244
1361.909422	691.2000122
1362.442897	693.4000244
1362.976317	692.5999756
1363.50968	696.4000244
1364.042989	696.4000244
1364.576241	696.7999878
1365.109438	697.4000244
1365.642579	697.5999756
1366.175664	694.7999878
1366.708693	694.4000244
1367.241667	700.0
1367.774585	698.4000244
1368.307448	699.2000122
1368.840255	701.0
1369.373006	713.0
1369.905701	719.2000122
1370.438341	708.4000244
1370.970925	700.7999878
1371.503454	696.4000244
1372.035926	698.7999878
1372.568344	697.0
1373.100705	700.4000244
1373.633011	698.7999878
1374.165261	704.2000122
1374.697456	697.2000122
1375.229595	698.4000244
1375.761678	701.7999878
1376.293705	701.4000244
1376.825677	700.7999878
1377.357594	698.5999756
1377.889455	703.5999756
1378.42126	701.4000244
1378.953009	705.7999878
1379.484703	707.4000244
1380.016342	706.4000244
1380.547924	709.0
1381.079452	712.0
1381.610923	709.0
1382.142339	718.7999878
1382.673699	723.7999878
1383.205004	727.5999756
1383.736253	737.2000122
1384.267447	753.7999878
1384.798585	779.2000122
1385.329668	829.4000244
1385.860695	930.2000122
1386.391666	1190.400024
1386.922582	1680.0
1387.453442	1979.199951
1387.984247	1551.800049
1388.514996	1114.400024
1389.04569	896.5999756
1389.576328	804.4000244
1390.10691	766.4000244
1390.637437	747.2000122
1391.167909	731.7999878
1391.698325	727.7999878
1392.228685	719.5999756
1392.75899	715.0
1393.28924	712.5999756
1393.819434	712.2000122
1394.349572	711.5999756
1394.879655	706.0
1395.409683	706.0
1395.939655	704.2000122
1396.469571	704.4000244
1396.999432	706.4000244
1397.529237	709.5999756
1398.058987	706.5999756
1398.588682	700.7999878
1399.118321	701.4000244
1399.647905	701.5999756
1400.177433	701.5999756
1400.706906	703.2000122
1401.236323	700.2000122
1401.765685	703.4000244
1402.294991	701.2000122
1402.824242	704.5999756
1403.353437	700.0
1403.882577	702.7999878
1404.411662	705.0
1404.940691	708.0
1405.469665	707.2000122
1405.998583	715.5999756
1406.527446	716.7999878
1407.056253	720.5999756
1407.585005	732.5999756
1408.113702	735.0
1408.642343	744.0
1409.170929	747.4000244
1409.69946	735.5999756
1410.227935	724.7999878
1410.756354	719.5999756
1411.284719	712.4000244
1411.813028	701.0
1412.341281	704.4000244
1412.869479	700.0
1413.397622	697.0
1413.92571	694.2000122
1414.453742	694.4000244
1414.981718	694.4000244
1415.50964	704.0
1416.037506	694.2000122
1416.565316	692.7999878
1417.093072	689.7999878
1417.620772	698.2000122
1418.148416	695.2000122
1418.676005	689.7999878
1419.203539	692.4000244
1419.731018	693.4000244
1420.258441	688.4000244
1420.785809	692.2000122
1421.313122	692.5999756
1421.840379	690.2000122
1422.367582	691.4000244
1422.894728	690.0
1423.42182	689.5999756
1423.948856	689.2000122
1424.475837	691.7999878
1425.002762	691.2000122
1425.529633	690.4000244
1426.056448	690.5999756
1426.583207	688.5999756
1427.109912	692.2000122
1427.636561	688.7999878
1428.163155	692.0
1428.689694	689.0
1429.216177	690.7999878
1429.742605	685.2000122
1430.268978	686.2000122
1430.795296	688.5999756
1431.321558	687.7999878
1431.847765	689.4000244
1432.373917	686.7999878
1432.900014	689.4000244
1433.426056	691.4000244
1433.952042	687.0
1434.477973	685.4000244
1435.003849	688.2000122
1435.529669	686.5999756
1436.055435	689.0
1436.581145	692.0
1437.1068	689.4000244
1437.632399	688.0
1438.157944	688.2000122
1438.683433	688.7999878
1439.208868	686.4000244
1439.734247	686.4000244
1440.25957	688.7999878
1440.784839	690.0
1441.310053	690.4000244
1441.835211	686.7999878
1442.360314	689.2000122
1442.885362	686.2000122
1443.410355	687.4000244
1443.935292	689.5999756
1444.460175	684.2000122
1444.985002	688.7999878
1445.509774	687.2000122
1446.034491	686.0
1446.559153	688.5999756
1447.08376	690.7999878
1447.608312	689.2000122
1448.132808	684.5999756
1448.65725	688.2000122
1449.181636	684.7999878
1449.705967	687.7999878
1450.230243	688.4000244
1450.754464	687.7999878
1451.27863	682.7999878
1451.802741	686.0
1452.326797	687.0
1452.850797	688.4000244
1453.374743	686.4000244
1453.898633	690.0
1454.422468	689.4000244
1454.946249	686.5999756
1455.469974	682.7999878
1455.993644	688.2000122
1456.517259	686.7999878
1457.040819	689.0
1457.564324	685.4000244
1458.087773	686.2000122
1458.611168	685.5999756
1459.134508	686.2000122
1459.657793	689.2000122
1460.181022	686.2000122
1460.704197	682.7999878
1461.227316	686.4000244
1461.750381	684.2000122
1462.27339	687.0
1462.796345	707.0
1463.319244	700.4000244
1463.842089	685.5999756
1464.364878	687.2000122
1464.887613	682.4000244
1465.410292	684.2000122
1465.932916	687.0
1466.455486	683.5999756
1466.978	686.5999756
1467.50046	684.4000244
1468.022864	687.2000122
1468.545214	688.4000244
1469.067508	686.5999756
1469.589748	684.0
1470.111932	688.5999756
1470.634062	684.7999878
1471.156136	681.7999878
1471.678156	687.2000122
1472.20012	690.5999756
1472.72203	687.4000244
1473.243885	683.4000244
1473.765685	687.2000122
1474.28743	687.2000122
1474.80912	686.2000122
1475.330755	688.2000122
1475.852335	683.5999756
1476.37386	680.7999878
1476.89533	683.5999756
1477.416745	685.7999878
1477.938106	685.5999756
1478.459411	682.7999878
1478.980662	685.0
1479.501857	683.0
1480.022998	683.4000244
1480.544084	683.5999756
1481.065115	683.5999756
1481.586091	687.2000122
1482.107012	688.7999878
1482.627878	684.0
1483.14869	685.0
1483.669446	682.0
1484.190148	685.4000244
1484.710794	685.7999878
1485.231386	687.2000122
1485.751923	684.5999756
1486.272406	684.4000244
1486.792833	686.0
1487.313205	685.5999756
1487.833523	688.4000244
1488.353786	687.5999756
1488.873994	686.2000122
1489.394147	685.4000244
1489.914245	686.2000122
1490.434288	685.7999878
1490.954277	683.2000122
1491.474211	688.2000122
1491.99409	682.0
1492.513914	686.0
1493.033683	684.7999878
1493.553398	686.2000122
1494.073057	685.0
1494.592662	687.7999878
1495.112212	686.5999756
1495.631708	684.5999756
1496.151148	686.2000122
1496.670534	682.7999878
1497.189865	682.7999878
1497.709141	683.5999756
1498.228362	686.5999756
1498.747529	681.7999878
1499.266641	686.2000122
1499.785698	693.2000122
1500.3047	686.0
1500.823648	685.7999878
1501.34254	683.0
1501.861379	684.2000122
1502.380162	685.5999756
1502.89889	683.5999756
1503.417564	685.0
1503.936183	683.7999878
1504.454748	685.5999756
1504.973257	687.5999756
1505.491712	686.2000122
1506.010112	681.4000244
1506.528458	684.7999878
1507.046748	687.7999878
1507.564984	687.0
1508.083166	685.4000244
1508.601292	683.5999756
1509.119364	685.4000244
1509.637381	684.4000244
1510.155344	684.5999756
1510.673252	692.0
1511.191105	683.2000122
1511.708903	684.2000122
1512.226647	686.0
1512.744336	688.4000244
1513.261971	683.5999756
1513.77955	684.7999878
1514.297076	682.0
1514.814546	685.4000244
1515.331962	684.7999878
1515.849323	684.4000244
1516.366629	683.4000244
1516.883881	683.4000244
1517.401078	685.0
1517.918221	686.0
1518.435309	683.5999756
1518.952342	683.0
1519.469321	684.5999756
1519.986245	683.2000122
1520.503114	684.2000122
1521.019929	682.7999878
1521.536689	681.2000122
1522.053395	684.2000122
1522.570046	683.0
1523.086642	686.5999756
1523.603184	684.5999756
1524.119671	683.4000244
1524.636103	690.5999756
1525.668805	696.5999756
1526.185073	699.0
1526.701288	687.0
1527.217447	686.5999756
1527.733552	684.4000244
1528.249603	684.0
1528.765599	686.5999756
1529.28154	683.5999756
1529.797427	683.4000244
1530.313259	682.5999756
1530.829037	685.7999878
1531.34476	685.7999878
1531.860429	684.4000244
1532.376043	688.2000122
1532.891602	686.7999878
1533.407107	682.5999756
1533.922558	685.7999878
1534.437954	685.4000244
1534.953295	684.4000244
1535.468582	687.7999878
1535.983815	684.4000244
1536.498993	687.0
1537.014116	684.0
1537.529185	684.5999756
1538.044199	688.0
1538.559159	686.7999878
1539.074064	685.5999756
1539.588915	683.7999878
1540.103712	685.7999878
1540.618454	687.2000122
1541.133141	684.7999878
1541.647774	683.0
1542.162353	686.2000122
1542.676877	684.0
1543.191346	684.0
1543.705761	686.7999878
1544.220122	686.0
1544.734428	684.0
1545.24868	683.7999878
1545.762877	687.4000244
1546.27702	683.7999878
1546.791109	683.7999878
1547.305143	687.4000244
1547.819122	683.5999756
1548.333047	681.5999756
1548.846918	683.2000122
1549.360734	683.5999756
1549.874496	684.7999878
1550.388204	685.4000244
1550.901857	683.7999878
1551.415455	684.2000122
1551.929	686.2000122
1552.442489	685.0
1552.955925	685.0
1553.469306	683.5999756
1553.982632	687.5999756
1554.495905	685.2000122
1555.009123	687.4000244
1555.522286	685.4000244
1556.035395	683.7999878
1556.54845	685.4000244
1557.06145	686.2000122
1557.574396	686.4000244
1558.087288	686.2000122
1558.600125	687.7999878
1559.112908	683.7999878
1559.625637	684.2000122
1560.138311	688.7999878
1560.650931	680.5999756
1561.163497	681.7999878
1561.676008	687.4000244
1562.188465	687.0
1562.700867	688.4000244
1563.213216	687.5999756
1563.725509	688.0
1564.237749	687.5999756
1564.749934	687.4000244
1565.774142	690.4000244
1566.286164	689.4000244
1566.798132	688.0
1567.310046	683.0
1567.821906	690.0
1568.333711	689.7999878
1568.845462	688.2000122
1569.357158	685.7999878
1569.868801	688.0
1570.380389	689.4000244
1570.891922	684.7999878
1571.403402	684.2000122
1571.914827	687.2000122
1572.426198	685.2000122
1572.937515	685.4000244
1573.448777	686.0
1573.959985	683.0
1574.471139	686.2000122
1574.982239	680.7999878
1575.493285	687.5999756
1576.004276	684.2000122
1576.515213	689.0
1577.026096	687.2000122
1577.536924	687.5999756
1578.047698	681.7999878
1578.558419	687.4000244
1579.069084	685.2000122
1579.579696	683.7999878
1580.090254	685.7999878
1580.600757	684.4000244
1581.111206	689.5999756
1581.621601	686.7999878
1582.131941	688.0
1582.642228	686.2000122
1583.15246	685.7999878
1583.662638	687.0
1584.172762	684.7999878
1584.682832	688.0
1585.192847	685.5999756
1585.702809	681.7999878
1586.212716	685.7999878
1586.722569	685.0
1587.232368	683.5999756
1587.742113	687.0
1588.251803	684.5999756
1588.76144	687.5999756
1589.271022	684.0
1589.78055	682.4000244
1590.290024	688.7999878
1590.799444	684.0
1591.30881	682.5999756
1591.818121	684.4000244
1592.327379	686.0
