 1.042452273E+03	 4.204200195E+03
 1.043018714E+03	 4.214200195E+03
 1.043585098E+03	 4.166000000E+03
 1.044151424E+03	 4.177600098E+03
 1.044717692E+03	 4.185000000E+03
 1.045283903E+03	 4.178600098E+03
 1.045850056E+03	 4.197200195E+03
 1.046416151E+03	 4.161799805E+03
 1.046982188E+03	 4.200799805E+03
 1.047548167E+03	 4.184000000E+03
 1.048114089E+03	 4.174799805E+03
 1.048679953E+03	 4.166600098E+03
 1.049245760E+03	 4.194600098E+03
 1.049811509E+03	 4.161200195E+03
 1.050377200E+03	 4.174200195E+03
 1.050942833E+03	 4.173000000E+03
 1.051508408E+03	 4.176000000E+03
 1.052073926E+03	 4.177000000E+03
 1.052639387E+03	 4.192799805E+03
 1.053204789E+03	 4.131799805E+03
 1.053770134E+03	 4.165200195E+03
 1.054335421E+03	 4.115799805E+03
 1.054900651E+03	 4.108799805E+03
 1.055465823E+03	 4.114799805E+03
 1.056030937E+03	 4.135399902E+03
 1.056595993E+03	 4.145600098E+03
 1.057160992E+03	 4.159200195E+03
 1.057725934E+03	 4.131600098E+03
 1.058290817E+03	 4.144600098E+03
 1.058855643E+03	 4.117200195E+03
 1.059420411E+03	 4.115600098E+03
 1.059985122E+03	 4.105799805E+03
 1.060549775E+03	 4.123799805E+03
 1.061114371E+03	 4.084000000E+03
 1.061678908E+03	 4.133799805E+03
 1.062243389E+03	 4.103200195E+03
 1.062807811E+03	 4.112399902E+03
 1.063372176E+03	 4.105200195E+03
 1.063936483E+03	 4.087000000E+03
 1.064500733E+03	 4.066800049E+03
 1.065064925E+03	 4.081600098E+03
 1.065629060E+03	 4.069600098E+03
 1.066193137E+03	 4.099600098E+03
 1.066757156E+03	 4.081399902E+03
 1.067321118E+03	 4.125399902E+03
 1.067885022E+03	 4.078000000E+03
 1.068448869E+03	 4.063199951E+03
 1.069012658E+03	 4.073600098E+03
 1.069576390E+03	 4.079600098E+03
 1.070140063E+03	 4.040600098E+03
 1.070703680E+03	 4.077399902E+03
 1.071267239E+03	 4.057000000E+03
 1.071830740E+03	 4.053800049E+03
 1.072394184E+03	 4.029800049E+03
 1.072957570E+03	 4.065399902E+03
 1.073520899E+03	 4.041800049E+03
 1.074084170E+03	 4.073600098E+03
 1.074647383E+03	 4.027399902E+03
 1.075210540E+03	 4.024600098E+03
 1.075773638E+03	 4.046800049E+03
 1.076336679E+03	 4.020600098E+03
 1.076899663E+03	 4.015000000E+03
 1.077462589E+03	 4.028000000E+03
 1.078025457E+03	 3.982000000E+03
 1.078588268E+03	 4.045399902E+03
 1.079151022E+03	 4.010600098E+03
 1.079713718E+03	 4.012399902E+03
 1.080276356E+03	 4.001800049E+03
 1.080838937E+03	 3.998800049E+03
 1.081401461E+03	 3.970199951E+03
 1.081963927E+03	 4.040399902E+03
 1.082526336E+03	 4.006000000E+03
 1.083088687E+03	 3.979000000E+03
 1.083650981E+03	 3.973000000E+03
 1.084213217E+03	 4.001399902E+03
 1.084775396E+03	 3.967399902E+03
 1.085337517E+03	 3.973800049E+03
 1.085899581E+03	 3.978199951E+03
 1.086461587E+03	 3.951199951E+03
 1.087023536E+03	 3.952000000E+03
 1.087585428E+03	 4.002399902E+03
 1.088147262E+03	 3.935199951E+03
 1.088709039E+03	 3.958800049E+03
 1.089270758E+03	 3.928000000E+03
 1.089832420E+03	 3.924199951E+03
 1.090394024E+03	 3.927800049E+03
 1.090955571E+03	 3.916600098E+03
 1.091517061E+03	 3.907000000E+03
 1.092078493E+03	 3.936000000E+03
 1.092639868E+03	 3.914600098E+03
 1.093201185E+03	 3.934800049E+03
 1.093762445E+03	 3.910000000E+03
 1.094323648E+03	 3.911399902E+03
 1.094884793E+03	 3.922800049E+03
 1.095445881E+03	 3.918800049E+03
 1.096006911E+03	 3.881399902E+03
 1.096567884E+03	 3.888000000E+03
 1.097128800E+03	 3.886800049E+03
 1.097689659E+03	 3.903800049E+03
 1.098250460E+03	 3.888000000E+03
 1.098811203E+03	 3.872000000E+03
 1.099371890E+03	 3.882600098E+03
 1.099932518E+03	 3.900800049E+03
 1.100493090E+03	 3.884600098E+03
 1.101053604E+03	 3.874199951E+03
 1.101614061E+03	 3.833600098E+03
 1.102174461E+03	 3.837800049E+03
 1.102734803E+03	 3.846800049E+03
 1.103295088E+03	 3.873600098E+03
 1.103855316E+03	 3.837399902E+03
 1.104415486E+03	 3.842399902E+03
 1.104975599E+03	 3.826600098E+03
 1.105535655E+03	 3.808199951E+03
 1.106095653E+03	 3.808000000E+03
 1.106655594E+03	 3.805000000E+03
 1.107215478E+03	 3.819600098E+03
 1.107775305E+03	 3.843399902E+03
 1.108335074E+03	 3.825600098E+03
 1.108894786E+03	 3.797800049E+03
 1.109454440E+03	 3.836000000E+03
 1.110014038E+03	 3.800399902E+03
 1.110573578E+03	 3.820000000E+03
 1.111133061E+03	 3.770600098E+03
 1.111692486E+03	 3.783600098E+03
 1.112251854E+03	 3.777000000E+03
 1.112811165E+03	 3.800000000E+03
 1.113370419E+03	 3.785000000E+03
 1.113929616E+03	 3.790800049E+03
 1.114488755E+03	 3.774800049E+03
 1.115047837E+03	 3.796000000E+03
 1.115606862E+03	 3.803600098E+03
 1.116165830E+03	 3.805800049E+03
 1.116724740E+03	 3.767000000E+03
 1.117283593E+03	 3.768600098E+03
 1.117842389E+03	 3.765800049E+03
 1.118401128E+03	 3.763600098E+03
 1.118959809E+03	 3.770000000E+03
 1.119518433E+03	 3.733399902E+03
 1.120077000E+03	 3.751800049E+03
 1.120635510E+03	 3.748199951E+03
 1.121193963E+03	 3.740399902E+03
 1.121752358E+03	 3.739199951E+03
 1.122310697E+03	 3.708600098E+03
 1.122868978E+03	 3.755199951E+03
 1.123427202E+03	 3.720600098E+03
 1.123985368E+03	 3.740199951E+03
 1.124543478E+03	 3.731600098E+03
 1.125101530E+03	 3.716399902E+03
 1.125659526E+03	 3.743199951E+03
 1.126217464E+03	 3.714399902E+03
 1.126775345E+03	 3.731800049E+03
 1.127333168E+03	 3.718399902E+03
 1.127890935E+03	 3.723199951E+03
 1.128448644E+03	 3.830000000E+03
 1.129006297E+03	 3.713600098E+03
 1.129563892E+03	 3.729000000E+03
 1.130121430E+03	 3.719000000E+03
 1.130678911E+03	 3.710800049E+03
 1.131236335E+03	 3.727600098E+03
 1.131793701E+03	 3.721199951E+03
 1.132351011E+03	 3.698000000E+03
 1.132908263E+03	 3.725399902E+03
 1.133465458E+03	 3.705000000E+03
 1.134022597E+03	 3.694800049E+03
 1.134579678E+03	 3.701800049E+03
 1.135136702E+03	 3.692800049E+03
 1.135693669E+03	 3.716199951E+03
 1.136250578E+03	 3.692199951E+03
 1.136807431E+03	 3.719000000E+03
 1.137364227E+03	 3.691199951E+03
 1.137920965E+03	 3.690199951E+03
 1.138477647E+03	 3.674800049E+03
 1.139034271E+03	 3.682000000E+03
 1.139590839E+03	 3.679000000E+03
 1.140147349E+03	 3.694600098E+03
 1.140703802E+03	 3.682000000E+03
 1.141260198E+03	 3.688000000E+03
 1.141816537E+03	 3.666800049E+03
 1.142372820E+03	 3.710199951E+03
 1.142929045E+03	 3.679000000E+03
 1.143485213E+03	 3.669800049E+03
 1.144041323E+03	 3.682800049E+03
 1.144597377E+03	 3.645399902E+03
 1.145153374E+03	 3.650800049E+03
 1.145709314E+03	 3.685800049E+03
 1.146265197E+03	 3.653000000E+03
 1.146821023E+03	 3.683199951E+03
 1.147376792E+03	 3.632199951E+03
 1.147932503E+03	 3.670000000E+03
 1.148488158E+03	 3.633600098E+03
 1.149043756E+03	 3.663800049E+03
 1.149599297E+03	 3.632000000E+03
 1.150154781E+03	 3.710399902E+03
 1.150710207E+03	 3.673199951E+03
 1.151265577E+03	 3.684800049E+03
 1.151820890E+03	 3.667600098E+03
 1.152376146E+03	 3.660199951E+03
 1.152931345E+03	 3.652199951E+03
 1.153486487E+03	 3.653800049E+03
 1.154041572E+03	 3.654800049E+03
 1.154596600E+03	 3.689800049E+03
 1.155151571E+03	 3.651800049E+03
 1.155706485E+03	 3.653800049E+03
 1.156261342E+03	 3.650399902E+03
 1.156816142E+03	 3.665199951E+03
 1.157370885E+03	 3.649000000E+03
 1.157925572E+03	 3.635800049E+03
 1.158480201E+03	 3.613399902E+03
 1.159034774E+03	 3.657800049E+03
 1.159589289E+03	 3.636399902E+03
 1.160143748E+03	 3.611399902E+03
 1.160698149E+03	 3.615199951E+03
 1.161252494E+03	 3.645399902E+03
 1.161806782E+03	 3.588000000E+03
 1.162361013E+03	 3.626399902E+03
 1.162915187E+03	 3.626399902E+03
 1.163469304E+03	 3.619000000E+03
 1.164023364E+03	 3.622600098E+03
 1.164577368E+03	 3.613600098E+03
 1.165131314E+03	 3.639600098E+03
 1.165685204E+03	 3.627000000E+03
 1.166239036E+03	 3.618800049E+03
 1.166792812E+03	 3.614000000E+03
 1.167346531E+03	 3.632000000E+03
 1.167900193E+03	 3.616000000E+03
 1.168453798E+03	 3.635600098E+03
 1.169007347E+03	 3.590399902E+03
 1.169560838E+03	 3.608000000E+03
 1.170114273E+03	 3.582000000E+03
 1.170667650E+03	 3.622000000E+03
 1.171220971E+03	 3.577600098E+03
 1.171774235E+03	 3.592000000E+03
 1.172327443E+03	 3.585399902E+03
 1.172880593E+03	 3.575199951E+03
 1.173433687E+03	 3.604199951E+03
 1.173986723E+03	 3.596600098E+03
 1.174539703E+03	 3.571600098E+03
 1.175092626E+03	 3.603800049E+03
 1.175645493E+03	 3.576399902E+03
 1.176198302E+03	 3.569399902E+03
 1.176751055E+03	 3.600399902E+03
 1.177303751E+03	 3.587000000E+03
 1.177856390E+03	 3.601800049E+03
 1.178408972E+03	 3.590600098E+03
 1.178961498E+03	 3.579000000E+03
 1.179513966E+03	 3.573800049E+03
 1.180066378E+03	 3.574199951E+03
 1.180618733E+03	 3.530600098E+03
 1.181171032E+03	 3.531399902E+03
 1.181723273E+03	 3.539600098E+03
 1.182275458E+03	 3.562800049E+03
 1.182827586E+03	 3.535199951E+03
 1.183379657E+03	 3.550800049E+03
 1.183931672E+03	 3.547199951E+03
 1.184483630E+03	 3.517399902E+03
 1.185035531E+03	 3.539000000E+03
 1.185587375E+03	 3.536800049E+03
 1.186139162E+03	 3.522800049E+03
 1.186690893E+03	 3.545800049E+03
 1.187242567E+03	 3.496199951E+03
 1.187794184E+03	 3.523800049E+03
 1.188345745E+03	 3.537199951E+03
 1.188897249E+03	 3.524800049E+03
 1.189448696E+03	 3.538600098E+03
 1.190000086E+03	 3.523000000E+03
 1.190551420E+03	 3.513199951E+03
 1.191102697E+03	 3.529199951E+03
 1.191653918E+03	 3.530600098E+03
 1.192205081E+03	 3.508399902E+03
 1.192756188E+03	 3.516800049E+03
 1.193307238E+03	 3.502399902E+03
 1.193858232E+03	 3.518800049E+03
 1.194409169E+03	 3.491600098E+03
 1.194960049E+03	 3.483600098E+03
 1.195510872E+03	 3.486000000E+03
 1.196061639E+03	 3.482800049E+03
 1.196612349E+03	 3.499000000E+03
 1.197163003E+03	 3.525399902E+03
 1.197713599E+03	 3.451199951E+03
 1.198264139E+03	 3.502800049E+03
 1.198814623E+03	 3.443199951E+03
 1.199365050E+03	 3.484000000E+03
 1.199915420E+03	 3.473600098E+03
 1.200465734E+03	 3.466800049E+03
 1.201015990E+03	 3.465199951E+03
 1.201566191E+03	 3.468800049E+03
 1.202116334E+03	 3.463600098E+03
 1.202666421E+03	 3.472000000E+03
 1.203216452E+03	 3.470600098E+03
 1.203766425E+03	 3.489600098E+03
 1.204316343E+03	 3.431600098E+03
 1.204866203E+03	 3.482000000E+03
 1.205416007E+03	 3.435800049E+03
 1.205965754E+03	 3.442000000E+03
 1.206515445E+03	 3.412800049E+03
 1.207065079E+03	 3.447800049E+03
 1.207614657E+03	 3.430199951E+03
 1.208164177E+03	 3.420399902E+03
 1.208713642E+03	 3.425800049E+03
 1.209263050E+03	 3.444600098E+03
 1.209812401E+03	 3.439199951E+03
 1.210361695E+03	 3.428399902E+03
 1.210910933E+03	 3.429800049E+03
 1.211460115E+03	 3.409000000E+03
 1.212009240E+03	 3.413000000E+03
 1.212558308E+03	 3.383800049E+03
 1.213107320E+03	 3.408800049E+03
 1.213656275E+03	 3.438399902E+03
 1.214205174E+03	 3.416199951E+03
 1.214754016E+03	 3.395199951E+03
 1.215302801E+03	 3.397399902E+03
 1.215851530E+03	 3.381800049E+03
 1.216400203E+03	 3.420199951E+03
 1.216948819E+03	 3.382399902E+03
 1.217497378E+03	 3.419199951E+03
 1.218045881E+03	 3.375600098E+03
 1.218594327E+03	 3.402399902E+03
 1.219142717E+03	 3.380199951E+03
 1.219691051E+03	 3.412000000E+03
 1.220239327E+03	 3.393199951E+03
 1.220787548E+03	 3.415000000E+03
 1.221335712E+03	 3.387000000E+03
 1.221883819E+03	 3.382199951E+03
 1.222431870E+03	 3.345600098E+03
 1.222979864E+03	 3.396000000E+03
 1.223527802E+03	 3.336800049E+03
 1.224075683E+03	 3.362800049E+03
 1.224623508E+03	 3.356399902E+03
 1.225171277E+03	 3.382800049E+03
 1.225718989E+03	 3.380600098E+03
 1.226266644E+03	 3.377399902E+03
 1.226814243E+03	 3.344800049E+03
 1.227361786E+03	 3.355800049E+03
 1.227909272E+03	 3.365399902E+03
 1.228456702E+03	 3.353600098E+03
 1.229004075E+03	 3.357800049E+03
 1.229551392E+03	 3.363000000E+03
 1.230098652E+03	 3.357000000E+03
 1.230645856E+03	 3.314199951E+03
 1.231193003E+03	 3.338600098E+03
 1.231740094E+03	 3.323600098E+03
 1.232287129E+03	 3.360399902E+03
 1.232834107E+03	 3.326600098E+03
 1.233381029E+03	 3.343000000E+03
 1.233927894E+03	 3.308199951E+03
 1.234474703E+03	 3.335800049E+03
 1.235021455E+03	 3.285600098E+03
 1.235568151E+03	 3.333600098E+03
 1.236114791E+03	 3.310800049E+03
 1.236661374E+03	 3.330800049E+03
 1.237207901E+03	 3.286600098E+03
 1.237754372E+03	 3.337199951E+03
 1.238300786E+03	 3.322199951E+03
 1.238847144E+03	 3.327800049E+03
 1.239393445E+03	 3.292800049E+03
 1.239939690E+03	 3.311800049E+03
 1.240485879E+03	 3.296600098E+03
 1.241032011E+03	 3.293199951E+03
 1.241578087E+03	 3.297199951E+03
 1.242124106E+03	 3.299399902E+03
 1.242670070E+03	 3.325399902E+03
 1.243215976E+03	 3.290399902E+03
 1.243761827E+03	 3.269399902E+03
 1.244307621E+03	 3.299800049E+03
 1.244853359E+03	 3.281800049E+03
 1.245399040E+03	 3.299000000E+03
 1.245944665E+03	 3.281399902E+03
 1.246490234E+03	 3.279000000E+03
 1.247035746E+03	 3.290800049E+03
 1.247581203E+03	 3.300800049E+03
 1.248126602E+03	 3.280199951E+03
 1.248671946E+03	 3.255000000E+03
 1.249217233E+03	 3.297000000E+03
 1.249762464E+03	 3.255600098E+03
 1.250307638E+03	 3.288800049E+03
 1.250852757E+03	 3.256600098E+03
 1.251397819E+03	 3.256199951E+03
 1.251942824E+03	 3.241000000E+03
 1.252487774E+03	 3.282000000E+03
 1.253032667E+03	 3.260199951E+03
 1.253577503E+03	 3.282000000E+03
 1.254122284E+03	 3.258199951E+03
 1.254667008E+03	 3.271600098E+03
 1.255211676E+03	 3.239600098E+03
 1.255756288E+03	 3.235000000E+03
 1.256300843E+03	 3.231000000E+03
 1.256845342E+03	 3.257199951E+03
 1.257389785E+03	 3.234800049E+03
 1.257934172E+03	 3.262399902E+03
 1.258478502E+03	 3.269399902E+03
 1.259022776E+03	 3.223600098E+03
 1.259566994E+03	 3.248399902E+03
 1.260111156E+03	 3.262399902E+03
 1.260655261E+03	 3.244199951E+03
 1.261199311E+03	 3.230000000E+03
 1.261743304E+03	 3.229600098E+03
 1.262287240E+03	 3.209800049E+03
 1.262831121E+03	 3.250600098E+03
 1.263374945E+03	 3.235000000E+03
 1.263918713E+03	 3.231600098E+03
 1.264462425E+03	 3.232000000E+03
 1.265006081E+03	 3.223399902E+03
 1.265549680E+03	 3.216000000E+03
 1.266093223E+03	 3.249399902E+03
 1.266636711E+03	 3.220600098E+03
 1.267180141E+03	 3.193600098E+03
 1.267723516E+03	 3.207600098E+03
 1.268266835E+03	 3.234600098E+03
 1.268810097E+03	 3.205800049E+03
 1.269353303E+03	 3.200000000E+03
 1.269896453E+03	 3.191399902E+03
 1.270439547E+03	 3.209199951E+03
 1.270982584E+03	 3.166199951E+03
 1.271525566E+03	 3.184399902E+03
 1.272068491E+03	 3.177199951E+03
 1.272611360E+03	 3.194199951E+03
 1.273154173E+03	 3.178600098E+03
 1.273696930E+03	 3.214800049E+03
 1.274239631E+03	 3.200800049E+03
 1.274782275E+03	 3.187600098E+03
 1.275324864E+03	 3.201600098E+03
 1.275867396E+03	 3.152800049E+03
 1.276409872E+03	 3.171399902E+03
 1.276952292E+03	 3.166800049E+03
 1.277494656E+03	 3.169399902E+03
 1.278036964E+03	 3.163000000E+03
 1.278579215E+03	 3.151399902E+03
 1.279121411E+03	 3.157600098E+03
 1.279663550E+03	 3.181000000E+03
 1.280205634E+03	 3.169800049E+03
 1.280747661E+03	 3.157199951E+03
 1.281289632E+03	 3.164800049E+03
 1.281831547E+03	 3.144600098E+03
 1.282373406E+03	 3.163800049E+03
 1.282915209E+03	 3.165000000E+03
 1.283456955E+03	 3.180199951E+03
 1.283998646E+03	 3.215800049E+03
 1.284540281E+03	 3.276199951E+03
 1.285081859E+03	 3.601800049E+03
 1.285623381E+03	 3.798600098E+03
 1.286164848E+03	 3.434000000E+03
 1.286706258E+03	 3.210600098E+03
 1.287247612E+03	 3.179399902E+03
 1.287788911E+03	 3.142600098E+03
 1.288330153E+03	 3.155600098E+03
 1.288871339E+03	 3.120199951E+03
 1.289412469E+03	 3.150399902E+03
 1.289953543E+03	 3.136399902E+03
 1.290494561E+03	 3.108199951E+03
 1.291035523E+03	 3.131399902E+03
 1.291576428E+03	 3.094000000E+03
 1.292117278E+03	 3.131000000E+03
 1.292658072E+03	 3.135600098E+03
 1.293198810E+03	 3.120800049E+03
 1.293739492E+03	 3.109800049E+03
 1.294280118E+03	 3.106000000E+03
 1.294820687E+03	 3.126000000E+03
 1.295361201E+03	 3.115399902E+03
 1.295901659E+03	 3.098800049E+03
 1.296442061E+03	 3.099000000E+03
 1.296982406E+03	 3.110600098E+03
 1.297522696E+03	 3.090199951E+03
 1.298062930E+03	 3.094800049E+03
 1.298603108E+03	 3.083399902E+03
 1.299143229E+03	 3.088399902E+03
 1.299683295E+03	 3.067000000E+03
 1.300223305E+03	 3.072000000E+03
 1.300763259E+03	 3.119399902E+03
 1.301303157E+03	 3.085399902E+03
 1.301842999E+03	 3.072000000E+03
 1.302382785E+03	 3.063800049E+03
 1.302922515E+03	 3.076000000E+03
 1.303462189E+03	 3.067800049E+03
 1.304001807E+03	 3.067000000E+03
 1.304541369E+03	 3.067199951E+03
 1.305080875E+03	 3.088600098E+03
 1.305620326E+03	 3.075600098E+03
 1.306159720E+03	 3.073600098E+03
 1.306699058E+03	 3.071000000E+03
 1.307238341E+03	 3.061000000E+03
 1.307777567E+03	 3.048199951E+03
 1.308316738E+03	 3.041600098E+03
 1.308855853E+03	 3.070399902E+03
 1.309394912E+03	 3.053600098E+03
 1.309933915E+03	 3.043399902E+03
 1.310472862E+03	 3.016199951E+03
 1.311011753E+03	 3.074800049E+03
 1.311550588E+03	 3.018000000E+03
 1.312089367E+03	 3.037399902E+03
 1.312628090E+03	 3.022600098E+03
 1.313166758E+03	 3.031399902E+03
 1.313705370E+03	 3.027600098E+03
 1.314243925E+03	 3.055000000E+03
 1.314782425E+03	 2.994600098E+03
 1.315320869E+03	 3.030800049E+03
 1.315859257E+03	 3.033399902E+03
 1.316397589E+03	 3.056399902E+03
 1.316935866E+03	 3.024199951E+03
 1.317474086E+03	 3.036399902E+03
 1.318012251E+03	 3.012399902E+03
 1.318550360E+03	 3.001600098E+03
 1.319088413E+03	 3.019199951E+03
 1.319626410E+03	 2.991199951E+03
 1.320164351E+03	 3.027800049E+03
 1.320702236E+03	 3.019199951E+03
 1.321240066E+03	 3.049399902E+03
 1.321777839E+03	 3.004399902E+03
 1.322315557E+03	 2.997600098E+03
 1.322853219E+03	 3.009399902E+03
 1.323390826E+03	 2.986800049E+03
 1.323928376E+03	 2.983399902E+03
 1.324465871E+03	 3.018199951E+03
 1.325003309E+03	 2.985600098E+03
 1.325540692E+03	 3.009399902E+03
 1.326078020E+03	 2.992600098E+03
 1.326615291E+03	 3.001800049E+03
 1.327152506E+03	 2.994000000E+03
 1.327689666E+03	 3.004000000E+03
 1.328226770E+03	 2.985399902E+03
 1.328763818E+03	 2.978399902E+03
 1.329300811E+03	 2.981399902E+03
 1.329837747E+03	 2.985399902E+03
 1.330374628E+03	 2.972399902E+03
 1.330911453E+03	 2.942000000E+03
 1.331448222E+03	 2.960800049E+03
 1.331984936E+03	 2.962000000E+03
 1.332521594E+03	 2.976000000E+03
 1.333058196E+03	 2.970000000E+03
 1.333594742E+03	 2.978399902E+03
 1.334131232E+03	 2.968000000E+03
 1.334667667E+03	 2.964399902E+03
 1.335204046E+03	 2.957399902E+03
 1.335740369E+03	 2.970000000E+03
 1.336276637E+03	 2.939399902E+03
 1.336812848E+03	 2.956199951E+03
 1.337349004E+03	 2.954399902E+03
 1.337885105E+03	 2.977600098E+03
 1.338421149E+03	 2.957399902E+03
 1.338957138E+03	 2.943600098E+03
 1.339493071E+03	 2.958800049E+03
 1.340028949E+03	 2.960800049E+03
 1.340564770E+03	 2.950399902E+03
 1.341100536E+03	 2.936600098E+03
 1.341636246E+03	 2.951199951E+03
 1.342171901E+03	 2.944800049E+03
 1.342707500E+03	 2.931000000E+03
 1.343243043E+03	 2.929800049E+03
 1.343778530E+03	 2.947000000E+03
 1.344313962E+03	 2.934800049E+03
 1.344849338E+03	 2.971000000E+03
 1.345384659E+03	 2.936800049E+03
 1.345919923E+03	 2.933800049E+03
 1.346455133E+03	 2.916600098E+03
 1.346990286E+03	 2.936800049E+03
 1.347525384E+03	 2.901000000E+03
 1.348060426E+03	 2.922399902E+03
 1.348595412E+03	 2.943399902E+03
 1.349130343E+03	 2.926800049E+03
 1.349665218E+03	 2.896600098E+03
 1.350200037E+03	 2.909000000E+03
 1.350734801E+03	 2.909199951E+03
 1.351269509E+03	 2.889399902E+03
 1.351804162E+03	 2.918600098E+03
 1.352338758E+03	 2.904000000E+03
 1.352873300E+03	 2.901199951E+03
 1.353407785E+03	 2.907600098E+03
 1.353942215E+03	 2.925199951E+03
 1.354476589E+03	 2.878000000E+03
 1.355010908E+03	 2.890399902E+03
 1.355545171E+03	 2.903600098E+03
 1.356079379E+03	 2.866600098E+03
 1.356613530E+03	 2.885800049E+03
 1.357147627E+03	 2.908600098E+03
 1.357681667E+03	 2.890800049E+03
 1.358215652E+03	 2.896600098E+03
 1.358749582E+03	 2.877000000E+03
 1.359283456E+03	 2.864600098E+03
 1.359817274E+03	 2.881800049E+03
 1.360351037E+03	 2.894399902E+03
 1.360884744E+03	 2.868199951E+03
 1.361418395E+03	 2.878000000E+03
 1.361951991E+03	 2.860399902E+03
 1.362485531E+03	 2.870600098E+03
 1.363019016E+03	 2.884000000E+03
 1.363552445E+03	 2.869199951E+03
 1.364085819E+03	 2.900199951E+03
 1.364619137E+03	 2.864399902E+03
 1.365152400E+03	 2.860199951E+03
 1.365685607E+03	 2.858199951E+03
 1.366218758E+03	 2.863800049E+03
 1.366751854E+03	 2.877199951E+03
 1.367284894E+03	 2.852800049E+03
 1.367817879E+03	 2.827399902E+03
 1.368350808E+03	 2.869399902E+03
 1.368883682E+03	 2.867199951E+03
 1.369416500E+03	 2.848000000E+03
 1.369949263E+03	 2.859399902E+03
 1.370481970E+03	 2.866399902E+03
 1.371014622E+03	 2.864399902E+03
 1.371547218E+03	 2.833800049E+03
 1.372079758E+03	 2.873399902E+03
 1.372612244E+03	 2.841399902E+03
 1.373144673E+03	 2.852000000E+03
 1.373677047E+03	 2.855000000E+03
 1.374209366E+03	 2.836199951E+03
 1.374741629E+03	 2.804199951E+03
 1.375273836E+03	 2.840199951E+03
 1.375805989E+03	 2.812199951E+03
 1.376338085E+03	 2.831600098E+03
 1.376870126E+03	 2.794600098E+03
 1.377402112E+03	 2.851000000E+03
 1.377934042E+03	 2.813399902E+03
 1.378465917E+03	 2.829199951E+03
 1.378997736E+03	 2.828800049E+03
 1.379529500E+03	 2.841199951E+03
 1.380061208E+03	 2.839399902E+03
 1.380592861E+03	 2.815600098E+03
 1.381124459E+03	 2.825000000E+03
 1.381656000E+03	 2.808399902E+03
 1.382187487E+03	 2.822199951E+03
 1.382718918E+03	 2.814399902E+03
 1.383250294E+03	 2.805800049E+03
 1.383781614E+03	 2.852199951E+03
 1.384312879E+03	 2.834000000E+03
 1.384844088E+03	 2.792000000E+03
 1.385375242E+03	 2.844000000E+03
 1.385906340E+03	 2.822000000E+03
 1.386437383E+03	 2.837800049E+03
 1.386968371E+03	 2.860800049E+03
 1.387499303E+03	 2.915399902E+03
 1.388030180E+03	 3.053600098E+03
 1.388561001E+03	 3.815000000E+03
 1.389091767E+03	 3.782199951E+03
 1.389622478E+03	 3.035399902E+03
 1.390153133E+03	 2.868600098E+03
 1.390683733E+03	 2.806399902E+03
 1.391214277E+03	 2.803600098E+03
 1.391744766E+03	 2.809800049E+03
 1.392275200E+03	 2.806800049E+03
 1.392805578E+03	 2.796000000E+03
 1.393335901E+03	 2.812199951E+03
 1.393866168E+03	 2.778800049E+03
 1.394396381E+03	 2.815199951E+03
 1.394926537E+03	 2.778199951E+03
 1.395456639E+03	 2.798800049E+03
 1.395986685E+03	 2.797399902E+03
 1.396516675E+03	 2.817399902E+03
 1.397046611E+03	 2.794399902E+03
 1.397576491E+03	 2.777600098E+03
 1.398106315E+03	 2.799000000E+03
 1.398636084E+03	 2.787399902E+03
 1.399165798E+03	 2.830399902E+03
 1.399695457E+03	 2.787600098E+03
 1.400225060E+03	 2.799800049E+03
 1.400754608E+03	 2.777600098E+03
 1.401284101E+03	 2.769199951E+03
 1.401813538E+03	 2.767600098E+03
 1.402342920E+03	 2.768199951E+03
 1.402872247E+03	 2.758399902E+03
 1.403401518E+03	 2.790399902E+03
 1.403930734E+03	 2.751600098E+03
 1.404459895E+03	 2.761000000E+03
 1.404989000E+03	 2.759600098E+03
 1.405518050E+03	 2.762800049E+03
 1.406047045E+03	 2.762000000E+03
 1.406575984E+03	 2.768600098E+03
 1.407104869E+03	 2.755199951E+03
 1.407633697E+03	 2.777000000E+03
 1.408162471E+03	 2.767199951E+03
 1.408691189E+03	 2.754600098E+03
 1.409219852E+03	 2.794800049E+03
 1.409748460E+03	 2.813800049E+03
 1.410277013E+03	 2.825000000E+03
 1.410805510E+03	 2.772399902E+03
 1.411333952E+03	 2.789000000E+03
 1.411862339E+03	 2.791399902E+03
 1.412390670E+03	 2.738399902E+03
 1.412918946E+03	 2.768399902E+03
 1.413447167E+03	 2.752399902E+03
 1.413975333E+03	 2.751800049E+03
 1.414503444E+03	 2.765800049E+03
 1.415031499E+03	 2.751199951E+03
 1.415559499E+03	 2.746000000E+03
 1.416087444E+03	 2.745399902E+03
 1.416615333E+03	 2.713600098E+03
 1.417143167E+03	 2.723000000E+03
 1.417670947E+03	 2.727800049E+03
 1.418198670E+03	 2.731000000E+03
 1.418726339E+03	 2.726000000E+03
 1.419253952E+03	 2.739000000E+03
 1.419781511E+03	 2.720199951E+03
 1.420309014E+03	 2.753600098E+03
 1.420836461E+03	 2.724199951E+03
 1.421363854E+03	 2.739199951E+03
 1.421891191E+03	 2.726800049E+03
 1.422418474E+03	 2.724800049E+03
 1.422945701E+03	 2.727199951E+03
 1.423472872E+03	 2.735399902E+03
 1.423999989E+03	 2.715600098E+03
 1.424527050E+03	 2.721199951E+03
 1.425054057E+03	 2.740399902E+03
 1.425581008E+03	 2.711600098E+03
 1.426107904E+03	 2.737000000E+03
 1.426634745E+03	 2.734000000E+03
 1.427161530E+03	 2.716800049E+03
 1.427688261E+03	 2.714600098E+03
 1.428214936E+03	 2.737000000E+03
 1.428741556E+03	 2.715000000E+03
 1.429268121E+03	 2.701000000E+03
 1.429794631E+03	 2.682199951E+03
 1.430321085E+03	 2.702800049E+03
 1.430847485E+03	 2.711399902E+03
 1.431373829E+03	 2.703600098E+03
 1.431900118E+03	 2.732600098E+03
 1.432426353E+03	 2.704600098E+03
 1.432952532E+03	 2.666600098E+03
 1.433478655E+03	 2.707399902E+03
 1.434004724E+03	 2.704199951E+03
 1.434530738E+03	 2.701000000E+03
 1.435056696E+03	 2.715199951E+03
 1.435582600E+03	 2.703600098E+03
 1.436108448E+03	 2.702800049E+03
 1.436634241E+03	 2.699399902E+03
 1.437159979E+03	 2.698399902E+03
 1.437685662E+03	 2.697000000E+03
 1.438211290E+03	 2.692800049E+03
 1.438736863E+03	 2.674000000E+03
 1.439262381E+03	 2.694800049E+03
 1.439787843E+03	 2.683600098E+03
 1.440313251E+03	 2.679600098E+03
 1.440838603E+03	 2.698600098E+03
 1.441363900E+03	 2.676800049E+03
 1.441889143E+03	 2.663000000E+03
 1.442414330E+03	 2.659800049E+03
 1.442939462E+03	 2.690399902E+03
 1.443464539E+03	 2.681000000E+03
 1.443989561E+03	 2.676399902E+03
 1.444514528E+03	 2.658800049E+03
 1.445039440E+03	 2.657199951E+03
 1.445564297E+03	 2.671199951E+03
 1.446089099E+03	 2.659199951E+03
 1.446613846E+03	 2.670800049E+03
 1.447138537E+03	 2.675800049E+03
 1.447663174E+03	 2.681199951E+03
 1.448187756E+03	 2.708399902E+03
 1.448712282E+03	 2.671199951E+03
 1.449236754E+03	 2.648399902E+03
 1.449761171E+03	 2.660600098E+03
 1.450285532E+03	 2.656199951E+03
 1.450809839E+03	 2.663800049E+03
 1.451334090E+03	 2.641600098E+03
 1.451858287E+03	 2.653000000E+03
 1.452382428E+03	 2.643600098E+03
 1.452906515E+03	 2.661000000E+03
 1.453430546E+03	 2.640199951E+03
 1.453954523E+03	 2.656000000E+03
 1.454478444E+03	 2.653800049E+03
 1.455002311E+03	 2.641399902E+03
 1.455526123E+03	 2.652399902E+03
 1.456049879E+03	 2.619199951E+03
 1.456573581E+03	 2.639000000E+03
 1.457097227E+03	 2.620399902E+03
 1.457620819E+03	 2.643399902E+03
 1.458144356E+03	 2.634600098E+03
 1.458667837E+03	 2.635000000E+03
 1.459191264E+03	 2.606600098E+03
 1.459714636E+03	 2.612000000E+03
 1.460237952E+03	 2.633000000E+03
 1.460761214E+03	 2.635399902E+03
 1.461284421E+03	 2.642800049E+03
 1.461807573E+03	 2.643600098E+03
 1.462330670E+03	 2.619600098E+03
 1.462853712E+03	 2.637000000E+03
 1.463376699E+03	 2.631800049E+03
 1.463899632E+03	 2.621399902E+03
 1.464422509E+03	 2.631600098E+03
 1.464945331E+03	 2.625800049E+03
 1.465468099E+03	 2.640199951E+03
 1.465990811E+03	 2.605800049E+03
 1.466513469E+03	 2.627399902E+03
 1.467036071E+03	 2.625600098E+03
 1.467558619E+03	 2.605399902E+03
 1.468081112E+03	 2.588399902E+03
 1.468603550E+03	 2.610199951E+03
 1.469125933E+03	 2.625199951E+03
 1.469648261E+03	 2.589199951E+03
 1.470170534E+03	 2.602800049E+03
 1.470692752E+03	 2.577399902E+03
 1.471214916E+03	 2.592399902E+03
 1.471737024E+03	 2.597000000E+03
 1.472259078E+03	 2.583399902E+03
 1.472781077E+03	 2.598399902E+03
 1.473303021E+03	 2.606199951E+03
 1.473824910E+03	 2.618000000E+03
 1.474346744E+03	 2.605199951E+03
 1.474868523E+03	 2.582800049E+03
 1.475390248E+03	 2.574600098E+03
 1.475911917E+03	 2.570399902E+03
 1.476433532E+03	 2.581199951E+03
 1.476955092E+03	 2.561199951E+03
 1.477476597E+03	 2.568399902E+03
 1.477998047E+03	 2.596000000E+03
 1.478519442E+03	 2.549199951E+03
 1.479040783E+03	 2.571600098E+03
 1.479562068E+03	 2.583800049E+03
 1.480083299E+03	 2.564199951E+03
 1.480604475E+03	 2.582199951E+03
 1.481125596E+03	 2.581199951E+03
 1.481646663E+03	 2.547800049E+03
 1.482167674E+03	 2.572399902E+03
 1.482688631E+03	 2.579000000E+03
 1.483209533E+03	 2.566800049E+03
 1.483730380E+03	 2.574000000E+03
 1.484251172E+03	 2.569800049E+03
 1.484771909E+03	 2.584399902E+03
 1.485292592E+03	 2.538000000E+03
 1.485813220E+03	 2.553000000E+03
 1.486333793E+03	 2.562199951E+03
 1.486854311E+03	 2.565399902E+03
 1.487374775E+03	 2.556800049E+03
 1.487895183E+03	 2.568800049E+03
 1.488415537E+03	 2.544600098E+03
 1.488935836E+03	 2.524600098E+03
 1.489456081E+03	 2.565000000E+03
 1.489976270E+03	 2.549800049E+03
 1.490496405E+03	 2.529399902E+03
 1.491016485E+03	 2.553399902E+03
 1.491536511E+03	 2.549399902E+03
 1.492056481E+03	 2.543399902E+03
 1.492576397E+03	 2.562000000E+03
 1.493096258E+03	 2.525800049E+03
 1.493616064E+03	 2.553800049E+03
 1.494135816E+03	 2.548600098E+03
 1.494655513E+03	 2.528399902E+03
 1.495175155E+03	 2.549600098E+03
 1.495694742E+03	 2.542199951E+03
 1.496214274E+03	 2.551199951E+03
 1.496733752E+03	 2.547800049E+03
 1.497253175E+03	 2.546800049E+03
 1.497772544E+03	 2.528399902E+03
 1.498291858E+03	 2.531000000E+03
 1.498811116E+03	 2.543399902E+03
 1.499330321E+03	 2.532199951E+03
 1.499849470E+03	 2.536600098E+03
 1.500368565E+03	 2.538399902E+03
 1.500887605E+03	 2.526800049E+03
 1.501406591E+03	 2.514600098E+03
 1.501925521E+03	 2.552000000E+03
 1.502444397E+03	 2.548600098E+03
 1.502963219E+03	 2.547399902E+03
 1.503481985E+03	 2.509199951E+03
 1.504000697E+03	 2.526000000E+03
 1.504519355E+03	 2.542199951E+03
 1.505037957E+03	 2.527199951E+03
 1.505556505E+03	 2.513399902E+03
 1.506074999E+03	 2.500199951E+03
 1.506593437E+03	 2.537199951E+03
 1.507111821E+03	 2.524600098E+03
 1.507630150E+03	 2.510800049E+03
 1.508148425E+03	 2.510600098E+03
 1.508666645E+03	 2.528800049E+03
 1.509184810E+03	 2.503800049E+03
 1.509702921E+03	 2.513000000E+03
 1.510220977E+03	 2.507600098E+03
 1.510738979E+03	 2.512399902E+03
 1.511256925E+03	 2.515600098E+03
 1.511774817E+03	 2.511600098E+03
 1.512292655E+03	 2.512000000E+03
 1.512810438E+03	 2.498600098E+03
 1.513328166E+03	 2.539600098E+03
 1.513845840E+03	 2.493800049E+03
 1.514363459E+03	 2.523600098E+03
 1.514881023E+03	 2.497399902E+03
 1.515398533E+03	 2.512800049E+03
 1.515915988E+03	 2.484000000E+03
 1.516433389E+03	 2.505800049E+03
 1.516950734E+03	 2.492600098E+03
 1.517468026E+03	 2.494399902E+03
 1.517985263E+03	 2.500199951E+03
 1.518502445E+03	 2.496399902E+03
 1.519019572E+03	 2.517199951E+03
 1.519536645E+03	 2.502000000E+03
 1.520053664E+03	 2.515800049E+03
 1.520570628E+03	 2.478600098E+03
 1.521087537E+03	 2.484800049E+03
 1.521604392E+03	 2.499800049E+03
 1.522121192E+03	 2.484000000E+03
 1.522637937E+03	 2.503399902E+03
 1.523154628E+03	 2.495000000E+03
 1.523671265E+03	 2.492000000E+03
 1.524187847E+03	 2.467800049E+03
 1.524704374E+03	 2.494199951E+03
 1.525220847E+03	 2.479199951E+03
 1.525737265E+03	 2.525600098E+03
 1.526253629E+03	 2.496600098E+03
 1.526769938E+03	 2.496399902E+03
 1.527286192E+03	 2.467399902E+03
 1.527802392E+03	 2.512800049E+03
 1.528318538E+03	 2.486199951E+03
 1.528834629E+03	 2.495800049E+03
 1.529350666E+03	 2.483600098E+03
 1.529866648E+03	 2.485199951E+03
 1.530382575E+03	 2.492000000E+03
 1.530898448E+03	 2.458000000E+03
 1.531414266E+03	 2.477800049E+03
 1.531930030E+03	 2.472600098E+03
 1.532445740E+03	 2.503600098E+03
 1.532961395E+03	 2.472000000E+03
 1.533476995E+03	 2.499000000E+03
 1.533992541E+03	 2.469199951E+03
 1.534508033E+03	 2.485600098E+03
 1.535023470E+03	 2.496199951E+03
 1.535538852E+03	 2.483199951E+03
 1.536054180E+03	 2.466800049E+03
 1.536569454E+03	 2.475800049E+03
 1.537084673E+03	 2.500600098E+03
 1.537599837E+03	 2.460199951E+03
 1.538114947E+03	 2.474000000E+03
 1.538630003E+03	 2.448800049E+03
 1.539145004E+03	 2.479800049E+03
 1.539659951E+03	 2.465800049E+03
 1.540174843E+03	 2.455199951E+03
 1.540689681E+03	 2.474000000E+03
 1.541204465E+03	 2.452000000E+03
 1.541719194E+03	 2.494399902E+03
 1.542233868E+03	 2.472600098E+03
 1.542748488E+03	 2.480000000E+03
 1.543263054E+03	 2.477800049E+03
 1.543777565E+03	 2.462000000E+03
 1.544292022E+03	 2.482800049E+03
 1.544806424E+03	 2.474600098E+03
 1.545320772E+03	 2.456399902E+03
 1.545835066E+03	 2.490399902E+03
 1.546349305E+03	 2.449199951E+03
 1.546863489E+03	 2.449800049E+03
 1.547377620E+03	 2.502800049E+03
 1.547891696E+03	 2.451199951E+03
 1.548405717E+03	 2.474600098E+03
 1.548919684E+03	 2.439600098E+03
 1.549433597E+03	 2.502199951E+03
 1.549947455E+03	 2.443399902E+03
 1.550461259E+03	 2.457600098E+03
 1.550975009E+03	 2.452800049E+03
 1.551488704E+03	 2.445199951E+03
 1.552002345E+03	 2.449800049E+03
 1.552515931E+03	 2.463399902E+03
 1.553029463E+03	 2.451399902E+03
 1.553542941E+03	 2.460600098E+03
 1.554056364E+03	 2.489600098E+03
 1.554569733E+03	 2.452000000E+03
 1.555083048E+03	 2.452600098E+03
 1.555596308E+03	 2.436199951E+03
 1.556109514E+03	 2.469199951E+03
 1.556622665E+03	 2.449399902E+03
 1.557135762E+03	 2.474199951E+03
 1.557648805E+03	 2.459800049E+03
 1.558161794E+03	 2.458199951E+03
 1.558674728E+03	 2.457800049E+03
 1.559187608E+03	 2.449600098E+03
 1.559700433E+03	 2.460800049E+03
 1.560213205E+03	 2.445600098E+03
 1.560725921E+03	 2.443399902E+03
 1.561238584E+03	 2.445399902E+03
 1.561751192E+03	 2.434800049E+03
 1.562263746E+03	 2.450800049E+03
 1.562776246E+03	 2.412600098E+03
 1.563288691E+03	 2.438399902E+03
 1.563801082E+03	 2.440399902E+03
 1.564313419E+03	 2.456399902E+03
 1.564825701E+03	 2.426399902E+03
 1.565337929E+03	 2.446600098E+03
 1.565850103E+03	 2.424399902E+03
 1.566362223E+03	 2.440199951E+03
 1.566874288E+03	 2.451600098E+03
 1.567386299E+03	 2.456600098E+03
 1.567898256E+03	 2.431600098E+03
 1.568410158E+03	 2.422199951E+03
 1.568922007E+03	 2.440000000E+03
 1.569433800E+03	 2.428600098E+03
 1.569945540E+03	 2.427199951E+03
 1.570457226E+03	 2.427800049E+03
 1.570968857E+03	 2.427399902E+03
 1.571480434E+03	 2.443399902E+03
 1.571991956E+03	 2.433600098E+03
 1.572503425E+03	 2.449800049E+03
 1.573014839E+03	 2.409399902E+03
 1.573526199E+03	 2.435800049E+03
 1.574037505E+03	 2.435800049E+03
 1.574548756E+03	 2.417000000E+03
 1.575059953E+03	 2.433399902E+03
 1.575571096E+03	 2.422000000E+03
 1.576082185E+03	 2.410600098E+03
 1.576593220E+03	 2.445199951E+03
 1.577104200E+03	 2.407199951E+03
 1.577615126E+03	 2.422199951E+03
 1.578125998E+03	 2.401600098E+03
 1.578636816E+03	 2.410000000E+03
 1.579147580E+03	 2.426000000E+03
 1.579658289E+03	 2.432000000E+03
 1.580168944E+03	 2.443000000E+03
 1.580679545E+03	 2.406000000E+03
 1.581190092E+03	 2.431600098E+03
 1.581700585E+03	 2.390399902E+03
 1.582211023E+03	 2.430399902E+03
 1.582721407E+03	 2.406199951E+03
 1.583231737E+03	 2.409600098E+03
 1.583742013E+03	 2.406000000E+03
 1.584252235E+03	 2.424800049E+03
 1.584762403E+03	 2.407399902E+03
 1.585272516E+03	 2.388199951E+03
 1.585782575E+03	 2.436600098E+03
 1.586292581E+03	 2.391800049E+03
 1.586802532E+03	 2.422600098E+03
 1.587312428E+03	 2.424399902E+03
 1.587822271E+03	 2.409399902E+03
 1.588332060E+03	 2.432000000E+03
 1.588841794E+03	 2.382000000E+03
 1.589351474E+03	 2.398000000E+03
 1.589861100E+03	 2.381800049E+03
 1.590370672E+03	 2.417199951E+03
 1.590880190E+03	 2.407000000E+03
 1.591389654E+03	 2.419600098E+03
 1.591899064E+03	 2.380199951E+03
 1.592408419E+03	 2.416600098E+03
