-3.166723941E+02	 6.625000000E+02
-3.115109955E+02	 6.605000000E+02
-3.063524099E+02	 6.630000000E+02
-3.011966354E+02	 6.625000000E+02
-2.960436702E+02	 6.605000000E+02
-2.908935123E+02	 6.630000000E+02
-2.857461598E+02	 6.615000000E+02
-2.806016108E+02	 6.625000000E+02
-2.754598635E+02	 6.630000000E+02
-2.703209159E+02	 6.625000000E+02
-2.651847661E+02	 6.605000000E+02
-2.600514122E+02	 6.605000000E+02
-2.549208523E+02	 6.585000000E+02
-2.497930845E+02	 6.610000000E+02
-2.446681069E+02	 6.615000000E+02
-2.395459176E+02	 6.585000000E+02
-2.344265147E+02	 6.575000000E+02
-2.293098962E+02	 6.620000000E+02
-2.241960603E+02	 6.615000000E+02
-2.190850050E+02	 6.605000000E+02
-2.139767285E+02	 6.640000000E+02
-2.088712287E+02	 6.610000000E+02
-2.037685039E+02	 6.620000000E+02
-1.986685520E+02	 6.555000000E+02
-1.935713712E+02	 6.600000000E+02
-1.884769595E+02	 6.610000000E+02
-1.833853151E+02	 6.615000000E+02
-1.782964359E+02	 6.575000000E+02
-1.732103202E+02	 6.610000000E+02
-1.681269659E+02	 6.605000000E+02
-1.630463711E+02	 6.600000000E+02
-1.579685340E+02	 6.580000000E+02
-1.528934526E+02	 6.600000000E+02
-1.478211249E+02	 6.605000000E+02
-1.427515491E+02	 6.610000000E+02
-1.376847231E+02	 6.590000000E+02
-1.326206452E+02	 6.570000000E+02
-1.275593134E+02	 6.615000000E+02
-1.225007256E+02	 6.590000000E+02
-1.174448801E+02	 6.580000000E+02
-1.123917749E+02	 6.580000000E+02
-1.073414080E+02	 6.585000000E+02
-1.022937775E+02	 6.585000000E+02
-9.724888152E+01	 6.580000000E+02
-9.220671808E+01	 6.625000000E+02
-8.716728526E+01	 6.590000000E+02
-8.213058113E+01	 6.590000000E+02
-7.709660375E+01	 6.610000000E+02
-7.206535119E+01	 6.600000000E+02
-6.703682152E+01	 6.585000000E+02
-6.201101279E+01	 6.620000000E+02
-5.698792308E+01	 6.565000000E+02
-5.196755045E+01	 6.590000000E+02
-4.694989295E+01	 6.600000000E+02
-4.193494866E+01	 6.610000000E+02
-3.692271564E+01	 6.585000000E+02
-3.191319194E+01	 6.600000000E+02
-2.690637563E+01	 6.640000000E+02
-2.190226477E+01	 6.585000000E+02
-1.690085743E+01	 6.620000000E+02
-1.190215165E+01	 6.675000000E+02
-6.906145501E+00	 1.151500000E+03
-1.912837044E+00	 4.449000000E+03
 3.077775663E+00	 2.666000000E+03
 8.065694562E+00	 7.790000000E+02
 1.305092159E+01	 6.705000000E+02
 1.803345870E+01	 6.630000000E+02
 2.301330783E+01	 6.645000000E+02
 2.799047091E+01	 6.605000000E+02
 3.296494990E+01	 6.635000000E+02
 3.793674674E+01	 6.595000000E+02
 4.290586336E+01	 6.615000000E+02
 4.787230171E+01	 6.560000000E+02
 5.283606375E+01	 6.610000000E+02
 5.779715140E+01	 6.625000000E+02
 6.275556661E+01	 6.815000000E+02
 6.771131134E+01	 7.270000000E+02
 7.266438751E+01	 7.475000000E+02
 7.761479709E+01	 7.525000000E+02
 8.256254201E+01	 7.570000000E+02
 8.750762421E+01	 7.640000000E+02
 9.245004565E+01	 7.665000000E+02
 9.738980827E+01	 7.675000000E+02
 1.023269140E+02	 7.585000000E+02
 1.072613648E+02	 7.580000000E+02
 1.121931626E+02	 7.730000000E+02
 1.171223094E+02	 7.735000000E+02
 1.220488071E+02	 7.735000000E+02
 1.269726577E+02	 7.820000000E+02
 1.318938630E+02	 7.855000000E+02
 1.368124251E+02	 7.810000000E+02
 1.417283459E+02	 7.930000000E+02
 1.466416273E+02	 8.090000000E+02
 1.515522712E+02	 7.920000000E+02
 1.564602798E+02	 8.025000000E+02
 1.613656548E+02	 8.115000000E+02
 1.662683982E+02	 7.955000000E+02
 1.711685119E+02	 8.005000000E+02
 1.760659980E+02	 7.930000000E+02
 1.809608584E+02	 7.915000000E+02
 1.858530949E+02	 8.040000000E+02
 1.907427096E+02	 7.995000000E+02
 1.956297044E+02	 8.120000000E+02
 2.005140812E+02	 8.025000000E+02
 2.053958420E+02	 8.165000000E+02
 2.102749887E+02	 8.675000000E+02
 2.151515233E+02	 9.035000000E+02
 2.200254477E+02	 9.140000000E+02
 2.248967639E+02	 8.925000000E+02
 2.297654738E+02	 8.915000000E+02
 2.346315793E+02	 8.790000000E+02
 2.394950825E+02	 8.640000000E+02
 2.443559852E+02	 8.400000000E+02
 2.492142893E+02	 8.130000000E+02
 2.540699969E+02	 8.120000000E+02
 2.589231099E+02	 8.105000000E+02
 2.637736301E+02	 8.080000000E+02
 2.686215596E+02	 8.080000000E+02
 2.734669004E+02	 8.090000000E+02
 2.783096542E+02	 8.260000000E+02
 2.831498232E+02	 8.445000000E+02
 2.879874091E+02	 8.770000000E+02
 2.928224141E+02	 9.795000000E+02
 2.976548399E+02	 1.130000000E+03
 3.024846886E+02	 1.087000000E+03
 3.073119621E+02	 9.825000000E+02
 3.121366623E+02	 9.170000000E+02
 3.169587911E+02	 9.110000000E+02
 3.217783506E+02	 9.125000000E+02
 3.265953426E+02	 8.870000000E+02
 3.314097691E+02	 8.680000000E+02
 3.362216321E+02	 8.790000000E+02
 3.410309333E+02	 8.525000000E+02
 3.458376749E+02	 8.335000000E+02
 3.506418587E+02	 8.435000000E+02
 3.554434867E+02	 8.395000000E+02
 3.602425608E+02	 8.305000000E+02
 3.650390830E+02	 8.280000000E+02
 3.698330551E+02	 8.270000000E+02
 3.746244791E+02	 8.065000000E+02
 3.794133570E+02	 8.100000000E+02
 3.841996907E+02	 8.040000000E+02
 3.889834820E+02	 8.080000000E+02
 3.937647331E+02	 8.065000000E+02
 3.985434457E+02	 8.195000000E+02
 4.033196218E+02	 8.405000000E+02
 4.080932633E+02	 8.720000000E+02
 4.128643723E+02	 8.925000000E+02
 4.176329505E+02	 8.850000000E+02
 4.223990000E+02	 8.850000000E+02
 4.271625226E+02	 9.310000000E+02
 4.319235204E+02	 9.775000000E+02
 4.366819951E+02	 9.345000000E+02
 4.414379488E+02	 8.665000000E+02
 4.461913834E+02	 8.325000000E+02
 4.509423008E+02	 8.185000000E+02
 4.556907029E+02	 8.100000000E+02
 4.604365917E+02	 8.070000000E+02
 4.651799690E+02	 8.140000000E+02
 4.699208369E+02	 8.060000000E+02
 4.746591971E+02	 8.215000000E+02
 4.793950517E+02	 8.385000000E+02
 4.841284026E+02	 8.190000000E+02
 4.888592517E+02	 8.080000000E+02
 4.935876009E+02	 8.120000000E+02
 4.983134521E+02	 8.120000000E+02
 5.030368073E+02	 8.140000000E+02
 5.077576683E+02	 8.130000000E+02
 5.124760371E+02	 8.115000000E+02
 5.171919157E+02	 8.145000000E+02
 5.219053058E+02	 8.140000000E+02
 5.266162095E+02	 8.175000000E+02
 5.313246287E+02	 8.345000000E+02
 5.360305652E+02	 8.460000000E+02
 5.407340209E+02	 8.405000000E+02
 5.454349979E+02	 8.265000000E+02
 5.501334980E+02	 8.265000000E+02
 5.548295231E+02	 8.260000000E+02
 5.595230752E+02	 8.260000000E+02
 5.642141560E+02	 8.325000000E+02
 5.689027676E+02	 8.855000000E+02
 5.735889119E+02	 9.490000000E+02
 5.782725907E+02	 1.028500000E+03
 5.829538060E+02	 1.074500000E+03
 5.876325597E+02	 1.031500000E+03
 5.923088537E+02	 9.975000000E+02
 5.969826898E+02	 1.046000000E+03
 6.016540700E+02	 1.095000000E+03
 6.063229962E+02	 1.070000000E+03
 6.109894703E+02	 1.006000000E+03
 6.156534942E+02	 9.290000000E+02
 6.203150698E+02	 8.715000000E+02
 6.249741990E+02	 8.590000000E+02
 6.296308836E+02	 8.375000000E+02
 6.342851257E+02	 8.345000000E+02
 6.389369270E+02	 8.140000000E+02
 6.435862895E+02	 8.140000000E+02
 6.482332151E+02	 8.150000000E+02
 6.528777056E+02	 8.095000000E+02
 6.575197630E+02	 7.965000000E+02
 6.621593892E+02	 8.250000000E+02
 6.667965859E+02	 8.195000000E+02
 6.714313553E+02	 8.105000000E+02
 6.760636990E+02	 8.050000000E+02
 6.806936191E+02	 8.030000000E+02
 6.853211173E+02	 8.115000000E+02
 6.899461956E+02	 8.090000000E+02
 6.945688559E+02	 8.180000000E+02
 6.991891001E+02	 8.375000000E+02
 7.038069299E+02	 8.175000000E+02
 7.084223474E+02	 8.200000000E+02
 7.130353544E+02	 8.235000000E+02
 7.176459528E+02	 8.260000000E+02
 7.222541444E+02	 8.180000000E+02
 7.268599311E+02	 8.305000000E+02
 7.314633149E+02	 8.440000000E+02
 7.360642976E+02	 8.280000000E+02
 7.406628810E+02	 8.370000000E+02
 7.452590670E+02	 8.520000000E+02
 7.498528576E+02	 8.650000000E+02
 7.544442546E+02	 8.515000000E+02
 7.590332598E+02	 8.655000000E+02
 7.636198751E+02	 8.845000000E+02
 7.682041024E+02	 8.840000000E+02
 7.727859436E+02	 8.840000000E+02
 7.773654005E+02	 9.020000000E+02
 7.819424750E+02	 9.375000000E+02
 7.865171689E+02	 9.360000000E+02
 7.910894842E+02	 9.660000000E+02
 7.956594226E+02	 1.035500000E+03
 8.002269861E+02	 1.099000000E+03
 8.047921765E+02	 1.291500000E+03
 8.093549957E+02	 1.662000000E+03
 8.139154455E+02	 2.572500000E+03
 8.184735277E+02	 4.024000000E+03
 8.230292443E+02	 4.296000000E+03
 8.275825971E+02	 3.133000000E+03
 8.321335879E+02	 2.378500000E+03
 8.366822186E+02	 2.313500000E+03
 8.412284911E+02	 2.783500000E+03
 8.457724071E+02	 4.269000000E+03
 8.503139686E+02	 6.551500000E+03
 8.548531774E+02	 6.861000000E+03
 8.593900353E+02	 4.680500000E+03
 8.639245442E+02	 2.936500000E+03
 8.684567059E+02	 2.035500000E+03
 8.729865223E+02	 1.815000000E+03
 8.775139952E+02	 1.845000000E+03
 8.820391264E+02	 1.720000000E+03
 8.865619179E+02	 1.345000000E+03
 8.910823713E+02	 1.110000000E+03
 8.956004886E+02	 1.017000000E+03
 9.001162717E+02	 9.815000000E+02
 9.046297222E+02	 9.540000000E+02
 9.091408421E+02	 9.585000000E+02
 9.136496333E+02	 9.925000000E+02
 9.181560974E+02	 1.002500000E+03
 9.226602364E+02	 9.395000000E+02
 9.271620521E+02	 9.085000000E+02
 9.316615463E+02	 8.940000000E+02
 9.361587209E+02	 8.875000000E+02
 9.406535776E+02	 9.250000000E+02
 9.451461183E+02	 9.005000000E+02
 9.496363448E+02	 9.285000000E+02
 9.541242589E+02	 9.560000000E+02
 9.586098625E+02	 9.375000000E+02
 9.630931573E+02	 9.135000000E+02
 9.675741453E+02	 8.915000000E+02
 9.720528281E+02	 8.700000000E+02
 9.765292076E+02	 8.510000000E+02
 9.810032857E+02	 8.575000000E+02
 9.854750641E+02	 8.305000000E+02
 9.899445447E+02	 8.305000000E+02
 9.944117292E+02	 8.225000000E+02
 9.988766194E+02	 8.110000000E+02
 1.003339217E+03	 8.245000000E+02
 1.007799524E+03	 8.180000000E+02
 1.012257543E+03	 8.255000000E+02
 1.016713274E+03	 8.090000000E+02
 1.021166720E+03	 8.085000000E+02
 1.025617883E+03	 8.230000000E+02
 1.030066764E+03	 8.150000000E+02
 1.034513366E+03	 8.145000000E+02
 1.038957689E+03	 8.110000000E+02
 1.043399736E+03	 8.090000000E+02
 1.047839508E+03	 8.110000000E+02
 1.052277008E+03	 7.930000000E+02
 1.056712237E+03	 7.985000000E+02
 1.061145197E+03	 8.045000000E+02
 1.065575890E+03	 8.015000000E+02
 1.070004317E+03	 8.000000000E+02
 1.074430481E+03	 8.060000000E+02
 1.078854382E+03	 8.000000000E+02
 1.083276024E+03	 7.965000000E+02
 1.087695407E+03	 7.885000000E+02
 1.092112533E+03	 7.950000000E+02
 1.096527405E+03	 7.970000000E+02
 1.100940023E+03	 7.950000000E+02
 1.105350391E+03	 7.980000000E+02
 1.109758509E+03	 8.060000000E+02
 1.114164379E+03	 7.950000000E+02
 1.118568003E+03	 7.905000000E+02
 1.122969383E+03	 7.975000000E+02
 1.127368521E+03	 7.900000000E+02
 1.131765418E+03	 7.950000000E+02
 1.136160076E+03	 8.140000000E+02
 1.140552497E+03	 7.990000000E+02
 1.144942682E+03	 8.020000000E+02
 1.149330634E+03	 7.955000000E+02
 1.153716354E+03	 8.030000000E+02
 1.158099845E+03	 8.010000000E+02
 1.162481106E+03	 8.025000000E+02
 1.166860142E+03	 7.990000000E+02
 1.171236952E+03	 7.905000000E+02
 1.175611539E+03	 7.980000000E+02
 1.179983905E+03	 7.910000000E+02
 1.184354052E+03	 7.905000000E+02
 1.188721980E+03	 7.880000000E+02
 1.193087693E+03	 7.910000000E+02
 1.197451191E+03	 8.015000000E+02
 1.201812477E+03	 7.895000000E+02
 1.206171552E+03	 7.905000000E+02
 1.210528417E+03	 8.015000000E+02
 1.214883076E+03	 7.980000000E+02
 1.219235529E+03	 7.980000000E+02
 1.223585777E+03	 7.940000000E+02
 1.227933824E+03	 7.910000000E+02
 1.232279670E+03	 7.910000000E+02
 1.236623318E+03	 7.970000000E+02
 1.240964769E+03	 7.885000000E+02
 1.245304024E+03	 7.810000000E+02
 1.249641086E+03	 7.815000000E+02
 1.253975956E+03	 7.800000000E+02
 1.258308636E+03	 7.790000000E+02
 1.262639128E+03	 7.775000000E+02
 1.266967433E+03	 7.735000000E+02
 1.271293553E+03	 7.750000000E+02
 1.275617490E+03	 7.760000000E+02
 1.279939245E+03	 7.645000000E+02
 1.284258821E+03	 7.675000000E+02
 1.288576219E+03	 7.685000000E+02
 1.292891440E+03	 7.700000000E+02
 1.297204487E+03	 7.680000000E+02
 1.301515360E+03	 7.670000000E+02
 1.305824063E+03	 7.710000000E+02
 1.310130596E+03	 7.625000000E+02
 1.314434961E+03	 7.700000000E+02
 1.318737161E+03	 7.725000000E+02
 1.323037195E+03	 7.655000000E+02
 1.327335067E+03	 7.645000000E+02
 1.331630779E+03	 7.780000000E+02
 1.335924330E+03	 7.635000000E+02
 1.340215725E+03	 7.705000000E+02
 1.344504963E+03	 7.655000000E+02
 1.348792047E+03	 7.725000000E+02
 1.353076978E+03	 7.695000000E+02
 1.357359759E+03	 7.675000000E+02
 1.361640390E+03	 7.740000000E+02
 1.365918874E+03	 7.745000000E+02
 1.370195212E+03	 7.590000000E+02
 1.374469406E+03	 7.620000000E+02
 1.378741458E+03	 7.680000000E+02
 1.383011369E+03	 7.745000000E+02
 1.387279141E+03	 7.635000000E+02
 1.391544775E+03	 7.675000000E+02
 1.395808274E+03	 7.650000000E+02
 1.400069638E+03	 7.670000000E+02
 1.404328870E+03	 7.710000000E+02
 1.408585972E+03	 7.615000000E+02
 1.412840944E+03	 7.645000000E+02
 1.417093789E+03	 7.650000000E+02
 1.421344508E+03	 7.610000000E+02
 1.425593103E+03	 7.700000000E+02
 1.429839576E+03	 7.560000000E+02
 1.434083928E+03	 7.565000000E+02
 1.438326161E+03	 7.525000000E+02
 1.442566276E+03	 7.640000000E+02
 1.446804276E+03	 7.685000000E+02
 1.451040161E+03	 7.600000000E+02
 1.455273934E+03	 7.595000000E+02
 1.459505596E+03	 7.655000000E+02
 1.463735149E+03	 7.720000000E+02
 1.467962595E+03	 7.590000000E+02
 1.472187935E+03	 7.660000000E+02
 1.476411170E+03	 7.685000000E+02
 1.480632303E+03	 7.635000000E+02
 1.484851334E+03	 7.675000000E+02
 1.489068267E+03	 7.675000000E+02
 1.493283101E+03	 7.605000000E+02
 1.497495840E+03	 7.515000000E+02
 1.501706484E+03	 7.520000000E+02
 1.505915036E+03	 7.565000000E+02
 1.510121496E+03	 7.775000000E+02
 1.514325866E+03	 7.605000000E+02
 1.518528149E+03	 7.590000000E+02
 1.522728346E+03	 7.640000000E+02
 1.526926457E+03	 7.640000000E+02
 1.531122486E+03	 7.610000000E+02
 1.535316433E+03	 7.575000000E+02
 1.539508301E+03	 7.565000000E+02
 1.543698090E+03	 7.580000000E+02
 1.547885803E+03	 7.620000000E+02
 1.552071441E+03	 7.530000000E+02
 1.556255005E+03	 7.570000000E+02
 1.560436498E+03	 7.525000000E+02
 1.564615920E+03	 7.635000000E+02
 1.568793274E+03	 7.565000000E+02
 1.572968561E+03	 7.535000000E+02
 1.577141783E+03	 7.500000000E+02
 1.581312941E+03	 7.570000000E+02
 1.585482037E+03	 7.550000000E+02
 1.589649072E+03	 7.670000000E+02
 1.593814048E+03	 7.525000000E+02
 1.597976967E+03	 7.530000000E+02
 1.602137831E+03	 7.450000000E+02
 1.606296640E+03	 7.515000000E+02
 1.610453396E+03	 7.630000000E+02
 1.614608102E+03	 7.560000000E+02
 1.618760758E+03	 7.585000000E+02
 1.622911367E+03	 7.610000000E+02
 1.627059929E+03	 7.560000000E+02
 1.631206446E+03	 7.520000000E+02
 1.635350921E+03	 7.500000000E+02
 1.639493354E+03	 7.500000000E+02
 1.643633747E+03	 7.585000000E+02
 1.647772102E+03	 7.575000000E+02
 1.651908420E+03	 7.465000000E+02
 1.656042702E+03	 7.505000000E+02
 1.660174952E+03	 7.470000000E+02
 1.664305169E+03	 7.545000000E+02
 1.668433355E+03	 7.455000000E+02
 1.672559513E+03	 7.595000000E+02
 1.676683643E+03	 7.545000000E+02
 1.680805748E+03	 7.540000000E+02
 1.684925828E+03	 7.460000000E+02
 1.689043886E+03	 7.485000000E+02
 1.693159923E+03	 7.455000000E+02
 1.697273940E+03	 7.525000000E+02
 1.701385938E+03	 7.480000000E+02
 1.705495921E+03	 7.440000000E+02
 1.709603888E+03	 7.505000000E+02
 1.713709843E+03	 7.455000000E+02
 1.717813785E+03	 7.500000000E+02
 1.721915717E+03	 7.490000000E+02
 1.726015640E+03	 7.435000000E+02
 1.730113557E+03	 7.390000000E+02
 1.734209467E+03	 7.455000000E+02
 1.738303373E+03	 7.510000000E+02
 1.742395277E+03	 7.445000000E+02
 1.746485180E+03	 7.535000000E+02
 1.750573083E+03	 7.430000000E+02
 1.754658988E+03	 7.415000000E+02
 1.758742897E+03	 7.395000000E+02
 1.762824811E+03	 7.470000000E+02
 1.766904731E+03	 7.505000000E+02
 1.770982660E+03	 7.495000000E+02
 1.775058598E+03	 7.445000000E+02
 1.779132547E+03	 7.450000000E+02
 1.783204509E+03	 7.470000000E+02
 1.787274485E+03	 7.430000000E+02
 1.791342477E+03	 7.435000000E+02
 1.795408486E+03	 7.385000000E+02
 1.799472514E+03	 7.375000000E+02
 1.803534562E+03	 7.400000000E+02
 1.807594632E+03	 7.375000000E+02
 1.811652725E+03	 7.375000000E+02
 1.815708843E+03	 7.455000000E+02
 1.819762987E+03	 7.450000000E+02
 1.823815159E+03	 7.430000000E+02
 1.827865360E+03	 7.440000000E+02
 1.831913592E+03	 7.360000000E+02
 1.835959856E+03	 7.405000000E+02
 1.840004154E+03	 7.315000000E+02
 1.844046487E+03	 7.425000000E+02
 1.848086857E+03	 7.425000000E+02
 1.852125265E+03	 7.310000000E+02
 1.856161713E+03	 7.380000000E+02
 1.860196202E+03	 7.320000000E+02
 1.864228734E+03	 7.410000000E+02
 1.868259310E+03	 7.355000000E+02
 1.872287932E+03	 7.425000000E+02
 1.876314600E+03	 7.420000000E+02
 1.880339318E+03	 7.370000000E+02
 1.884362085E+03	 7.315000000E+02
 1.888382904E+03	 7.400000000E+02
 1.892401776E+03	 7.365000000E+02
 1.896418703E+03	 7.345000000E+02
 1.900433685E+03	 7.325000000E+02
 1.904446725E+03	 7.325000000E+02
 1.908457824E+03	 7.420000000E+02
 1.912466983E+03	 7.320000000E+02
 1.916474204E+03	 7.355000000E+02
 1.920479489E+03	 7.310000000E+02
 1.924482838E+03	 7.365000000E+02
 1.928484253E+03	 7.350000000E+02
 1.932483736E+03	 7.420000000E+02
 1.936481288E+03	 7.330000000E+02
 1.940476911E+03	 7.400000000E+02
 1.944470606E+03	 7.300000000E+02
 1.948462374E+03	 7.335000000E+02
 1.952452217E+03	 7.325000000E+02
 1.956440136E+03	 7.315000000E+02
 1.960426134E+03	 7.340000000E+02
 1.964410210E+03	 7.330000000E+02
 1.968392367E+03	 7.265000000E+02
 1.972372607E+03	 7.370000000E+02
 1.976350929E+03	 7.320000000E+02
 1.980327337E+03	 7.225000000E+02
 1.984301832E+03	 7.285000000E+02
 1.988274414E+03	 7.275000000E+02
 1.992245085E+03	 7.365000000E+02
 1.996213848E+03	 7.270000000E+02
 2.000180702E+03	 7.275000000E+02
 2.004145650E+03	 7.295000000E+02
 2.008108693E+03	 7.305000000E+02
 2.012069832E+03	 7.320000000E+02
 2.016029069E+03	 7.245000000E+02
 2.019986406E+03	 7.300000000E+02
 2.023941843E+03	 7.265000000E+02
 2.027895382E+03	 7.225000000E+02
 2.031847025E+03	 7.185000000E+02
 2.035796772E+03	 7.215000000E+02
 2.039744626E+03	 7.265000000E+02
 2.043690588E+03	 7.280000000E+02
 2.047634659E+03	 7.270000000E+02
 2.051576840E+03	 7.305000000E+02
 2.055517134E+03	 7.280000000E+02
 2.059455540E+03	 7.245000000E+02
 2.063392062E+03	 7.255000000E+02
 2.067326699E+03	 7.305000000E+02
 2.071259454E+03	 7.230000000E+02
 2.075190328E+03	 7.280000000E+02
 2.079119323E+03	 7.230000000E+02
 2.083046439E+03	 7.315000000E+02
 2.086971678E+03	 7.355000000E+02
 2.090895041E+03	 7.300000000E+02
 2.094816531E+03	 7.275000000E+02
 2.098736148E+03	 7.285000000E+02
 2.102653893E+03	 7.215000000E+02
 2.106569769E+03	 7.320000000E+02
 2.110483776E+03	 7.290000000E+02
 2.114395915E+03	 7.250000000E+02
 2.118306189E+03	 7.270000000E+02
 2.122214599E+03	 7.345000000E+02
 2.126121145E+03	 7.215000000E+02
 2.130025829E+03	 7.220000000E+02
 2.133928654E+03	 7.310000000E+02
 2.137829619E+03	 7.165000000E+02
 2.141728726E+03	 7.275000000E+02
 2.145625978E+03	 7.210000000E+02
 2.149521374E+03	 7.200000000E+02
 2.153414917E+03	 7.320000000E+02
 2.157306608E+03	 7.250000000E+02
 2.161196448E+03	 7.220000000E+02
 2.165084439E+03	 7.265000000E+02
 2.168970581E+03	 7.155000000E+02
 2.172854877E+03	 7.205000000E+02
 2.176737327E+03	 7.170000000E+02
 2.180617933E+03	 7.255000000E+02
 2.184496697E+03	 7.255000000E+02
 2.188373619E+03	 7.170000000E+02
 2.192248701E+03	 7.225000000E+02
 2.196121944E+03	 7.180000000E+02
 2.199993351E+03	 7.225000000E+02
 2.203862921E+03	 7.175000000E+02
 2.207730656E+03	 7.150000000E+02
 2.211596558E+03	 7.230000000E+02
 2.215460629E+03	 7.215000000E+02
 2.219322868E+03	 7.185000000E+02
 2.223183279E+03	 7.230000000E+02
 2.227041861E+03	 7.210000000E+02
 2.230898616E+03	 7.170000000E+02
 2.234753547E+03	 7.210000000E+02
 2.238606653E+03	 7.160000000E+02
 2.242457937E+03	 7.215000000E+02
 2.246307399E+03	 7.130000000E+02
 2.250155041E+03	 7.210000000E+02
 2.254000864E+03	 7.195000000E+02
 2.257844870E+03	 7.200000000E+02
 2.261687060E+03	 7.120000000E+02
 2.265527435E+03	 7.205000000E+02
 2.269365997E+03	 7.135000000E+02
 2.273202747E+03	 7.125000000E+02
 2.277037685E+03	 7.125000000E+02
 2.280870814E+03	 7.130000000E+02
 2.284702135E+03	 7.155000000E+02
 2.288531649E+03	 7.150000000E+02
 2.292359358E+03	 7.180000000E+02
 2.296185261E+03	 7.110000000E+02
 2.300009362E+03	 7.190000000E+02
 2.303831662E+03	 7.080000000E+02
 2.307652160E+03	 7.195000000E+02
 2.311470860E+03	 7.175000000E+02
 2.315287761E+03	 7.145000000E+02
 2.319102867E+03	 7.175000000E+02
 2.322916176E+03	 7.160000000E+02
 2.326727692E+03	 7.245000000E+02
 2.330537415E+03	 7.200000000E+02
 2.334345347E+03	 7.205000000E+02
 2.338151489E+03	 7.185000000E+02
 2.341955841E+03	 7.115000000E+02
 2.345758406E+03	 7.240000000E+02
 2.349559185E+03	 7.170000000E+02
 2.353358179E+03	 7.140000000E+02
 2.357155389E+03	 7.205000000E+02
 2.360950816E+03	 7.130000000E+02
 2.364744462E+03	 7.250000000E+02
 2.368536329E+03	 7.155000000E+02
 2.372326416E+03	 7.205000000E+02
 2.376114727E+03	 7.085000000E+02
 2.379901261E+03	 7.155000000E+02
 2.383686020E+03	 7.145000000E+02
 2.387469005E+03	 7.150000000E+02
 2.391250218E+03	 7.170000000E+02
 2.395029661E+03	 7.165000000E+02
 2.398807333E+03	 7.190000000E+02
 2.402583236E+03	 7.260000000E+02
 2.406357373E+03	 7.260000000E+02
 2.410129743E+03	 7.220000000E+02
 2.413900348E+03	 7.215000000E+02
 2.417669190E+03	 7.330000000E+02
 2.421436269E+03	 7.310000000E+02
 2.425201587E+03	 7.400000000E+02
 2.428965146E+03	 7.530000000E+02
 2.432726946E+03	 7.565000000E+02
 2.436486988E+03	 7.615000000E+02
 2.440245274E+03	 7.570000000E+02
 2.444001806E+03	 7.550000000E+02
 2.447756583E+03	 7.435000000E+02
 2.451509609E+03	 7.430000000E+02
 2.455260883E+03	 7.365000000E+02
 2.459010407E+03	 7.295000000E+02
 2.462758182E+03	 7.330000000E+02
 2.466504210E+03	 7.290000000E+02
 2.470248491E+03	 7.275000000E+02
 2.473991028E+03	 7.260000000E+02
 2.477731821E+03	 7.260000000E+02
 2.481470871E+03	 7.165000000E+02
 2.485208179E+03	 7.160000000E+02
 2.488943748E+03	 7.190000000E+02
 2.492677577E+03	 7.200000000E+02
 2.496409669E+03	 7.235000000E+02
 2.500140024E+03	 7.205000000E+02
 2.503868644E+03	 7.165000000E+02
 2.507595530E+03	 7.150000000E+02
 2.511320683E+03	 7.200000000E+02
 2.515044104E+03	 7.205000000E+02
 2.518765795E+03	 7.220000000E+02
 2.522485757E+03	 7.195000000E+02
 2.526203990E+03	 7.170000000E+02
 2.529920497E+03	 7.120000000E+02
 2.533635277E+03	 7.145000000E+02
 2.537348334E+03	 7.155000000E+02
 2.541059667E+03	 7.155000000E+02
 2.544769278E+03	 7.090000000E+02
 2.548477168E+03	 7.165000000E+02
 2.552183339E+03	 7.110000000E+02
 2.555887791E+03	 7.115000000E+02
 2.559590525E+03	 7.140000000E+02
 2.563291544E+03	 7.150000000E+02
 2.566990847E+03	 7.105000000E+02
 2.570688437E+03	 7.175000000E+02
 2.574384315E+03	 7.115000000E+02
 2.578078481E+03	 7.085000000E+02
 2.581770936E+03	 7.115000000E+02
 2.585461683E+03	 7.055000000E+02
 2.589150722E+03	 7.075000000E+02
 2.592838054E+03	 7.155000000E+02
 2.596523680E+03	 7.070000000E+02
 2.600207603E+03	 7.075000000E+02
 2.603889822E+03	 7.060000000E+02
 2.607570339E+03	 7.080000000E+02
 2.611249155E+03	 7.065000000E+02
 2.614926272E+03	 7.160000000E+02
 2.618601690E+03	 7.085000000E+02
 2.622275411E+03	 7.115000000E+02
 2.625947436E+03	 7.100000000E+02
 2.629617766E+03	 7.105000000E+02
 2.633286402E+03	 7.035000000E+02
 2.636953345E+03	 7.105000000E+02
 2.640618597E+03	 7.145000000E+02
 2.644282158E+03	 7.135000000E+02
 2.647944030E+03	 7.155000000E+02
 2.651604214E+03	 7.015000000E+02
 2.655262711E+03	 7.035000000E+02
 2.658919523E+03	 7.060000000E+02
 2.662574650E+03	 7.055000000E+02
 2.666228093E+03	 7.070000000E+02
 2.669879854E+03	 7.055000000E+02
 2.673529934E+03	 7.085000000E+02
 2.677178334E+03	 7.100000000E+02
 2.680825054E+03	 7.065000000E+02
 2.684470098E+03	 7.030000000E+02
 2.688113464E+03	 7.100000000E+02
 2.691755155E+03	 7.120000000E+02
 2.695395172E+03	 7.085000000E+02
 2.699033515E+03	 7.050000000E+02
 2.702670187E+03	 7.120000000E+02
 2.706305187E+03	 7.050000000E+02
 2.709938518E+03	 7.065000000E+02
 2.713570180E+03	 7.065000000E+02
 2.717200174E+03	 7.060000000E+02
 2.720828502E+03	 7.040000000E+02
 2.724455165E+03	 7.040000000E+02
 2.728080163E+03	 7.055000000E+02
 2.731703499E+03	 7.050000000E+02
 2.735325172E+03	 7.095000000E+02
 2.738945185E+03	 6.995000000E+02
 2.742563538E+03	 7.045000000E+02
 2.746180232E+03	 7.100000000E+02
 2.749795269E+03	 6.980000000E+02
 2.753408649E+03	 7.070000000E+02
 2.757020374E+03	 7.050000000E+02
 2.760630445E+03	 7.075000000E+02
 2.764238863E+03	 7.115000000E+02
 2.767845629E+03	 7.055000000E+02
 2.771450744E+03	 7.055000000E+02
 2.775054209E+03	 7.060000000E+02
 2.778656026E+03	 7.000000000E+02
 2.782256195E+03	 7.000000000E+02
 2.785854718E+03	 7.010000000E+02
 2.789451595E+03	 7.075000000E+02
 2.793046828E+03	 7.020000000E+02
 2.796640418E+03	 7.075000000E+02
 2.800232366E+03	 7.005000000E+02
 2.803822673E+03	 7.055000000E+02
 2.807411341E+03	 7.005000000E+02
 2.810998369E+03	 6.975000000E+02
 2.814583760E+03	 7.040000000E+02
 2.818167514E+03	 7.020000000E+02
 2.821749632E+03	 7.000000000E+02
 2.825330116E+03	 6.965000000E+02
 2.828908967E+03	 7.040000000E+02
 2.832486186E+03	 7.040000000E+02
 2.836061773E+03	 7.005000000E+02
 2.839635730E+03	 7.050000000E+02
 2.843208059E+03	 7.005000000E+02
 2.846778759E+03	 6.980000000E+02
 2.850347832E+03	 7.105000000E+02
 2.853915280E+03	 6.985000000E+02
 2.857481103E+03	 7.010000000E+02
 2.861045302E+03	 7.035000000E+02
 2.864607879E+03	 7.045000000E+02
 2.868168834E+03	 7.050000000E+02
 2.871728168E+03	 7.090000000E+02
 2.875285884E+03	 6.995000000E+02
 2.878841981E+03	 7.000000000E+02
 2.882396460E+03	 7.065000000E+02
 2.885949324E+03	 7.010000000E+02
 2.889500572E+03	 6.990000000E+02
 2.893050207E+03	 7.025000000E+02
 2.896598228E+03	 6.950000000E+02
 2.900144637E+03	 7.040000000E+02
 2.903689435E+03	 6.970000000E+02
 2.907232624E+03	 7.000000000E+02
 2.910774204E+03	 7.035000000E+02
 2.914314176E+03	 7.070000000E+02
 2.917852541E+03	 7.105000000E+02
 2.921389301E+03	 6.990000000E+02
 2.924924456E+03	 6.985000000E+02
 2.928458007E+03	 7.045000000E+02
 2.931989956E+03	 6.965000000E+02
 2.935520304E+03	 7.010000000E+02
 2.939049051E+03	 7.060000000E+02
 2.942576198E+03	 7.060000000E+02
 2.946101748E+03	 7.035000000E+02
 2.949625700E+03	 7.040000000E+02
 2.953148056E+03	 7.025000000E+02
 2.956668816E+03	 7.075000000E+02
 2.960187983E+03	 7.110000000E+02
 2.963705556E+03	 6.930000000E+02
 2.967221537E+03	 6.930000000E+02
 2.970735927E+03	 7.030000000E+02
 2.974248727E+03	 7.005000000E+02
 2.977759937E+03	 6.980000000E+02
 2.981269560E+03	 7.020000000E+02
 2.984777596E+03	 6.935000000E+02
 2.988284046E+03	 6.965000000E+02
 2.991788911E+03	 6.925000000E+02
 2.995292192E+03	 6.975000000E+02
 2.998793890E+03	 6.975000000E+02
 3.002294006E+03	 6.965000000E+02
 3.005792542E+03	 6.965000000E+02
 3.009289497E+03	 6.985000000E+02
 3.012784874E+03	 6.935000000E+02
 3.016278673E+03	 6.930000000E+02
 3.019770895E+03	 6.955000000E+02
 3.023261541E+03	 7.015000000E+02
 3.026750613E+03	 6.960000000E+02
 3.030238111E+03	 6.970000000E+02
 3.033724036E+03	 6.995000000E+02
 3.037208389E+03	 6.980000000E+02
 3.040691172E+03	 6.910000000E+02
 3.044172385E+03	 6.945000000E+02
 3.047652029E+03	 6.970000000E+02
 3.051130105E+03	 6.990000000E+02
 3.054606615E+03	 6.935000000E+02
 3.058081559E+03	 6.930000000E+02
 3.061554938E+03	 6.940000000E+02
 3.065026753E+03	 6.940000000E+02
 3.068497006E+03	 6.975000000E+02
 3.071965697E+03	 6.950000000E+02
 3.075432828E+03	 6.930000000E+02
 3.078898398E+03	 6.995000000E+02
 3.082362410E+03	 6.940000000E+02
 3.085824864E+03	 6.970000000E+02
 3.089285761E+03	 6.950000000E+02
 3.092745103E+03	 6.915000000E+02
 3.096202889E+03	 6.975000000E+02
 3.099659122E+03	 6.900000000E+02
 3.103113802E+03	 6.955000000E+02
 3.106566931E+03	 6.955000000E+02
 3.110018508E+03	 6.990000000E+02
 3.113468536E+03	 6.925000000E+02
 3.116917014E+03	 6.935000000E+02
 3.120363945E+03	 6.925000000E+02
 3.123809329E+03	 6.960000000E+02
 3.127253166E+03	 6.935000000E+02
 3.130695459E+03	 6.910000000E+02
 3.134136208E+03	 6.985000000E+02
 3.137575414E+03	 6.935000000E+02
 3.141013078E+03	 6.925000000E+02
 3.144449200E+03	 6.930000000E+02
 3.147883783E+03	 7.035000000E+02
 3.151316826E+03	 6.935000000E+02
 3.154748332E+03	 6.925000000E+02
 3.158178300E+03	 6.905000000E+02
 3.161606731E+03	 6.920000000E+02
 3.165033628E+03	 6.870000000E+02
 3.168458990E+03	 6.915000000E+02
 3.171882819E+03	 6.915000000E+02
 3.175305115E+03	 6.930000000E+02
 3.178725880E+03	 6.940000000E+02
 3.182145115E+03	 6.890000000E+02
 3.185562820E+03	 6.875000000E+02
 3.188978996E+03	 6.935000000E+02
 3.192393645E+03	 6.930000000E+02
 3.195806767E+03	 6.905000000E+02
 3.199218364E+03	 6.915000000E+02
 3.202628436E+03	 6.905000000E+02
 3.206036984E+03	 6.915000000E+02
 3.209444009E+03	 6.915000000E+02
 3.212849512E+03	 6.970000000E+02
 3.216253495E+03	 6.880000000E+02
 3.219655957E+03	 6.955000000E+02
 3.223056901E+03	 6.875000000E+02
 3.226456326E+03	 6.880000000E+02
 3.229854234E+03	 6.890000000E+02
 3.233250626E+03	 6.890000000E+02
 3.236645503E+03	 6.945000000E+02
 3.240038865E+03	 6.860000000E+02
 3.243430714E+03	 6.910000000E+02
 3.246821051E+03	 6.875000000E+02
 3.250209876E+03	 6.835000000E+02
 3.253597190E+03	 6.925000000E+02
 3.256982995E+03	 6.845000000E+02
 3.260367292E+03	 6.935000000E+02
 3.263750080E+03	 6.925000000E+02
 3.267131362E+03	 6.910000000E+02
 3.270511137E+03	 6.850000000E+02
 3.273889408E+03	 6.890000000E+02
 3.277266175E+03	 6.855000000E+02
 3.280641439E+03	 6.895000000E+02
 3.284015200E+03	 6.870000000E+02
 3.287387460E+03	 6.940000000E+02
 3.290758220E+03	 6.885000000E+02
 3.294127481E+03	 6.910000000E+02
 3.297495243E+03	 6.955000000E+02
 3.300861508E+03	 6.925000000E+02
 3.304226276E+03	 6.930000000E+02
 3.307589548E+03	 6.945000000E+02
 3.310951325E+03	 6.880000000E+02
 3.314311609E+03	 6.910000000E+02
 3.317670400E+03	 6.875000000E+02
 3.321027698E+03	 6.910000000E+02
 3.324383506E+03	 6.875000000E+02
 3.327737823E+03	 6.860000000E+02
 3.331090652E+03	 6.905000000E+02
 3.334441991E+03	 6.865000000E+02
 3.337791844E+03	 6.935000000E+02
 3.341140210E+03	 6.850000000E+02
 3.344487090E+03	 6.890000000E+02
 3.347832485E+03	 6.905000000E+02
 3.351176397E+03	 6.895000000E+02
 3.354518826E+03	 6.840000000E+02
 3.357859772E+03	 6.870000000E+02
 3.361199238E+03	 6.930000000E+02
 3.364537224E+03	 6.870000000E+02
 3.367873730E+03	 6.915000000E+02
 3.371208758E+03	 6.930000000E+02
 3.374542308E+03	 6.925000000E+02
 3.377874382E+03	 6.920000000E+02
 3.381204981E+03	 6.925000000E+02
 3.384534104E+03	 6.845000000E+02
 3.387861754E+03	 6.920000000E+02
 3.391187930E+03	 6.895000000E+02
 3.394512635E+03	 6.910000000E+02
 3.397835868E+03	 6.940000000E+02
 3.401157631E+03	 6.865000000E+02
 3.404477925E+03	 6.915000000E+02
 3.407796751E+03	 6.860000000E+02
 3.411114108E+03	 6.940000000E+02
 3.414429999E+03	 6.895000000E+02
 3.417744424E+03	 6.925000000E+02
 3.421057385E+03	 6.885000000E+02
 3.424368881E+03	 6.930000000E+02
 3.427678914E+03	 6.870000000E+02
 3.430987485E+03	 6.960000000E+02
 3.434294594E+03	 6.860000000E+02
 3.437600244E+03	 6.925000000E+02
 3.440904433E+03	 6.930000000E+02
 3.444207164E+03	 6.895000000E+02
 3.447508437E+03	 6.920000000E+02
 3.450808253E+03	 6.920000000E+02
 3.454106612E+03	 6.870000000E+02
 3.457403517E+03	 6.885000000E+02
 3.460698968E+03	 6.920000000E+02
 3.463992965E+03	 6.875000000E+02
 3.467285509E+03	 6.895000000E+02
 3.470576602E+03	 6.875000000E+02
 3.473866244E+03	 6.915000000E+02
 3.477154436E+03	 6.895000000E+02
 3.480441179E+03	 6.855000000E+02
 3.483726474E+03	 6.875000000E+02
 3.487010321E+03	 6.900000000E+02
 3.490292723E+03	 6.845000000E+02
 3.493573678E+03	 6.890000000E+02
 3.496853189E+03	 6.840000000E+02
 3.500131256E+03	 6.865000000E+02
 3.503407881E+03	 6.870000000E+02
 3.506683063E+03	 6.850000000E+02
 3.509956804E+03	 6.905000000E+02
 3.513229104E+03	 6.905000000E+02
 3.516499965E+03	 6.850000000E+02
 3.519769388E+03	 6.850000000E+02
 3.523037373E+03	 6.850000000E+02
 3.526303921E+03	 6.840000000E+02
 3.529569033E+03	 6.900000000E+02
 3.532832710E+03	 6.810000000E+02
 3.536094952E+03	 6.895000000E+02
 3.539355761E+03	 6.855000000E+02
 3.542615138E+03	 6.900000000E+02
 3.545873083E+03	 6.800000000E+02
 3.549129597E+03	 6.885000000E+02
 3.552384681E+03	 6.870000000E+02
 3.555638336E+03	 6.890000000E+02
 3.558890562E+03	 6.815000000E+02
 3.562141361E+03	 6.865000000E+02
 3.565390734E+03	 6.865000000E+02
 3.568638681E+03	 6.840000000E+02
 3.571885203E+03	 6.865000000E+02
 3.575130301E+03	 6.855000000E+02
 3.578373976E+03	 6.850000000E+02
 3.581616229E+03	 6.875000000E+02
 3.584857060E+03	 6.805000000E+02
 3.588096471E+03	 6.815000000E+02
 3.591334462E+03	 6.860000000E+02
 3.594571034E+03	 6.825000000E+02
 3.597806187E+03	 6.860000000E+02
 3.601039924E+03	 6.845000000E+02
 3.604272245E+03	 6.835000000E+02
 3.607503149E+03	 6.910000000E+02
 3.610732640E+03	 6.870000000E+02
 3.613960716E+03	 6.880000000E+02
 3.617187379E+03	 6.840000000E+02
 3.620412631E+03	 6.835000000E+02
 3.623636471E+03	 6.875000000E+02
 3.626858900E+03	 6.875000000E+02
 3.630079920E+03	 6.840000000E+02
 3.633299531E+03	 6.810000000E+02
 3.636517735E+03	 6.890000000E+02
 3.639734531E+03	 6.850000000E+02
 3.642949921E+03	 6.850000000E+02
 3.646163905E+03	 6.830000000E+02
 3.649376485E+03	 6.885000000E+02
 3.652587661E+03	 6.850000000E+02
 3.655797434E+03	 6.885000000E+02
 3.659005806E+03	 6.810000000E+02
 3.662212776E+03	 6.870000000E+02
 3.665418345E+03	 6.875000000E+02
 3.668622515E+03	 6.865000000E+02
 3.671825287E+03	 6.885000000E+02
 3.675026660E+03	 6.865000000E+02
 3.678226636E+03	 6.880000000E+02
 3.681425216E+03	 6.860000000E+02
 3.684622401E+03	 6.855000000E+02
 3.687818191E+03	 6.875000000E+02
 3.691012587E+03	 6.900000000E+02
 3.694205591E+03	 6.900000000E+02
 3.697397202E+03	 6.870000000E+02
 3.700587422E+03	 6.910000000E+02
 3.703776252E+03	 6.875000000E+02
 3.706963692E+03	 6.910000000E+02
 3.710149743E+03	 6.855000000E+02
 3.713334406E+03	 6.830000000E+02
 3.716517682E+03	 6.840000000E+02
 3.719699572E+03	 6.880000000E+02
 3.722880077E+03	 6.865000000E+02
 3.726059196E+03	 6.870000000E+02
 3.729236932E+03	 6.815000000E+02
 3.732413285E+03	 6.835000000E+02
 3.735588255E+03	 6.780000000E+02
 3.738761845E+03	 6.855000000E+02
 3.741934053E+03	 6.875000000E+02
 3.745104882E+03	 6.865000000E+02
 3.748274332E+03	 6.800000000E+02
 3.751442404E+03	 6.850000000E+02
 3.754609098E+03	 6.820000000E+02
 3.757774416E+03	 6.800000000E+02
 3.760938359E+03	 6.875000000E+02
 3.764100927E+03	 6.845000000E+02
 3.767262120E+03	 6.820000000E+02
 3.770421940E+03	 6.840000000E+02
 3.773580388E+03	 6.855000000E+02
 3.776737465E+03	 6.815000000E+02
 3.779893170E+03	 6.840000000E+02
 3.783047506E+03	 6.850000000E+02
 3.786200473E+03	 6.815000000E+02
 3.789352071E+03	 6.870000000E+02
 3.792502301E+03	 6.855000000E+02
 3.795651165E+03	 6.815000000E+02
 3.798798663E+03	 6.880000000E+02
 3.801944796E+03	 6.830000000E+02
 3.805089565E+03	 6.825000000E+02
