1042.208489	700.5
1042.775002	703.5
1043.341458	700.75
1043.907855	700.0
1044.474195	701.0
1045.040476	695.75
1045.6067	695.5
1046.172866	701.75
1046.738974	697.25
1047.305024	694.75
1047.871015	695.0
1048.436949	698.25
1049.002825	694.0
1049.568644	697.0
1050.134404	694.75
1050.700106	698.0
1051.26575	691.75
1051.831337	689.0
1052.396865	693.25
1052.962336	692.75
1053.527749	691.75
1054.093103	690.75
1054.6584	698.0
1055.223639	692.75
1055.788821	688.75
1056.353944	692.75
1056.919009	691.0
1057.484017	688.75
1058.048967	692.25
1058.613858	690.5
1059.178692	689.25
1059.743468	687.25
1060.308187	689.25
1060.872847	691.25
1061.43745	687.0
1062.001994	686.5
1062.566481	687.25
1063.13091	686.25
1063.695281	686.25
1064.259595	688.75
1064.82385	684.75
1065.388048	689.75
1065.952188	687.75
1066.51627	686.0
1067.080295	688.0
1067.644261	691.75
1068.20817	688.25
1068.772021	687.0
1069.335814	688.5
1069.899549	696.5
1070.463227	688.25
1071.026847	690.0
1071.590409	685.75
1072.153913	688.5
1072.717359	689.75
1073.280748	686.75
1073.844079	691.0
1074.407352	685.75
1074.970568	685.0
1075.533726	686.0
1076.096826	688.25
1076.659868	687.75
1077.222853	689.75
1077.785779	687.75
1078.348648	686.5
1078.91146	684.5
1079.474214	685.5
1080.036909	687.75
1080.599548	684.75
1081.162128	682.5
1081.724651	689.0
1082.287116	687.25
1082.849524	687.25
1083.411873	689.75
1083.974165	683.75
1084.5364	688.75
1085.098577	686.75
1085.660696	685.75
1086.222757	686.5
1086.784761	685.75
1087.346707	685.75
1087.908595	686.5
1088.470426	687.25
1089.032199	688.5
1089.593914	684.0
1090.155572	685.0
1090.717172	684.5
1091.278715	685.75
1091.8402	685.25
1092.401627	688.5
1092.962997	691.0
1093.524309	682.5
1094.085563	688.25
1094.64676	685.25
1095.207899	696.5
1095.768981	685.75
1096.330005	685.25
1096.890971	692.75
1097.45188	684.5
1098.012732	685.75
1098.573525	689.75
1099.134261	684.5
1099.69494	690.0
1100.255561	686.75
1100.816124	685.5
1101.37663	684.5
1101.937078	684.5
1102.497469	684.0
1103.057802	683.5
1103.618078	684.25
1104.178296	685.75
1104.738456	684.75
1105.298559	688.0
1105.858605	687.0
1106.418593	685.5
1106.978523	682.75
1107.538396	687.0
1108.098212	684.5
1108.657969	683.75
1109.21767	685.25
1109.777313	686.0
1110.336898	686.5
1110.896426	685.0
1111.455896	685.25
1112.015309	685.5
1112.574665	688.0
1113.133963	687.5
1113.693203	685.75
1114.252386	684.5
1114.811512	685.0
1115.37058	688.5
1115.92959	688.5
1116.488544	690.0
1117.047439	688.5
1117.606278	683.5
1118.165058	685.25
1118.723782	688.0
1119.282448	685.0
1119.841056	686.25
1120.399607	685.75
1120.958101	686.0
1121.516537	686.25
1122.074916	686.0
1122.633237	688.5
1123.191501	685.5
1123.749708	685.25
1124.307857	683.0
1124.865949	685.5
1125.423984	691.5
1125.981961	684.75
1126.53988	686.0
1127.097742	682.0
1127.655547	685.75
1128.213295	691.0
1128.770985	687.25
1129.328618	685.0
1129.886193	684.25
1130.443711	687.75
1131.001172	683.5
1131.558575	684.0
1132.115921	686.0
1132.67321	687.25
1133.230441	687.5
1133.787615	681.0
1134.344732	686.75
1134.901792	690.0
1135.458794	686.25
1136.015738	683.25
1136.572626	683.75
1137.129456	686.75
1137.686229	683.5
1138.242944	684.5
1138.799602	685.5
1139.356203	687.0
1139.912747	682.5
1140.469233	685.75
1141.025662	683.0
1141.582034	689.0
1142.138348	688.75
1142.694606	686.75
1143.250806	684.75
1143.806948	688.75
1144.363034	690.5
1144.919062	686.25
1145.475033	687.75
1146.030946	687.0
1146.586803	689.5
1147.142602	685.75
1147.698344	691.5
1148.254029	690.5
1148.809656	685.75
1149.365227	684.0
1149.92074	689.75
1150.476195	703.0
1151.031594	725.25
1151.586936	727.0
1152.14222	702.5
1152.697447	689.25
1153.252617	688.5
1153.807729	687.75
1154.362785	687.25
1154.917783	687.25
1155.472724	684.25
1156.027608	688.25
1156.582435	686.0
1157.137204	686.25
1157.691917	685.5
1158.246572	685.5
1158.80117	686.5
1159.355711	688.75
1159.910195	689.25
1160.464621	690.5
1161.018991	686.75
1161.573303	689.5
1162.127558	684.75
1162.681756	685.25
1163.235897	687.75
1163.789981	687.25
1164.344008	685.75
1164.897978	684.75
1165.45189	687.5
1166.005745	687.25
1166.559544	687.5
1167.113285	686.0
1167.666969	685.75
1168.220596	689.0
1168.774166	684.75
1169.327679	685.5
1169.881135	686.75
1170.434533	688.25
1170.987875	686.0
1171.541159	685.75
1172.094387	687.0
1172.647557	686.5
1173.200671	684.5
1173.753727	685.25
1174.306726	686.75
1174.859668	683.5
1175.412554	688.25
1175.965382	684.75
1176.518153	689.5
1177.070867	687.25
1177.623524	685.5
1178.176124	685.75
1178.728667	690.5
1179.281153	687.5
1179.833582	685.25
1180.385954	685.0
1180.938269	684.25
1181.490527	684.25
1182.042728	685.5
1182.594872	684.5
1183.146959	681.0
1183.698989	685.0
1184.250962	688.25
1184.802878	686.75
1185.354737	687.25
1185.906539	684.75
1186.458285	682.25
1187.009973	681.25
1187.561604	684.25
1188.113178	685.25
1188.664696	687.25
1189.216156	679.25
1189.76756	686.0
1190.318906	689.75
1190.870196	686.75
1191.421429	683.25
1191.972604	684.25
1192.523723	685.75
1193.074785	703.75
1193.62579	685.0
1194.176738	682.75
1194.727629	681.75
1195.278464	686.25
1195.829241	687.75
1196.379962	687.0
1196.930625	685.0
1197.481232	683.5
1198.031782	688.0
1198.582275	687.25
1199.132711	680.75
1199.68309	685.25
1200.233413	682.5
1200.783678	683.5
1201.333887	684.0
1201.884039	688.5
1202.434134	683.5
1202.984172	685.25
1203.534153	688.5
1204.084077	685.75
1204.633945	684.25
1205.183756	683.25
1205.73351	686.0
1206.283207	690.25
1206.832847	684.25
1207.38243	687.5
1207.931957	685.75
1208.481427	684.0
1209.03084	689.0
1209.580196	683.75
1210.129496	685.5
1210.678738	683.75
1211.227924	685.75
1211.777053	686.25
1212.326126	690.0
1212.875141	688.0
1213.4241	684.75
1213.973002	686.75
1214.521847	687.75
1215.070636	684.5
1215.619367	687.25
1216.168042	683.0
1216.71666	689.5
1217.265222	688.75
1217.813726	688.25
1218.362174	690.0
1218.910566	684.25
1219.4589	688.0
1220.007178	685.5
1220.555399	684.0
1221.103563	683.75
1221.651671	686.75
1222.199722	689.75
1222.747716	685.5
1223.295653	688.0
1223.843534	685.5
1224.391358	683.25
1224.939126	684.25
1225.486836	685.25
1226.03449	690.25
1226.582088	686.75
1227.129628	684.25
1227.677112	686.75
1228.22454	685.25
1228.77191	687.5
1229.319224	686.75
1229.866482	686.75
1230.413682	686.0
1230.960826	682.25
1231.507914	692.0
1232.054945	684.75
1232.601919	684.75
1233.148836	685.75
1233.695697	686.5
1234.242501	687.0
1234.789249	684.5
1235.33594	687.75
1235.882574	686.5
1236.429152	686.5
1236.975673	686.0
1237.522138	685.25
1238.068545	684.25
1238.614897	681.25
1239.161191	684.75
1239.70743	686.25
1240.253611	685.5
1240.799736	686.5
1241.345805	684.75
1241.891816	690.75
1242.437772	682.0
1242.98367	683.25
1243.529512	687.0
1244.075298	689.5
1244.621027	684.5
1245.1667	688.75
1245.712315	682.5
1246.257875	690.5
1246.803378	683.25
1247.348824	686.5
1247.894214	688.0
1248.439547	686.0
1248.984824	688.0
1249.530044	684.5
1250.075208	687.5
1250.620315	689.0
1251.165365	686.25
1251.71036	688.5
1252.255297	681.5
1252.800178	686.5
1253.345003	685.75
1253.889771	686.5
1254.434483	685.25
1254.979138	685.0
1255.523737	685.75
1256.068279	686.0
1256.612765	688.25
1257.157194	686.25
1257.701567	681.5
1258.245884	685.75
1258.790143	682.75
1259.334347	687.0
1260.422585	690.5
1260.966619	685.25
1261.510596	683.5
1262.054518	684.0
1262.598383	691.5
1263.142191	694.75
1263.685943	691.5
1264.229639	693.0
1264.773278	701.0
1265.316861	720.0
1265.860387	727.0
1266.403857	707.0
1266.947271	693.75
1267.490628	688.5
1268.033929	689.75
1268.577173	690.0
1269.120361	686.75
1269.663493	689.5
1270.206568	687.5
1270.749587	686.0
1271.292549	685.25
1271.835456	684.5
1272.378305	688.75
1272.921099	684.0
1273.463836	685.75
1274.006517	686.5
1274.549141	684.25
1275.091709	689.5
1275.634221	684.75
1276.176676	687.25
1276.719075	687.75
1277.261418	685.0
1277.803704	686.25
1278.345935	687.25
1278.888108	690.25
1279.430226	685.0
1279.972287	685.0
1280.514292	686.25
1281.05624	685.5
1281.598133	689.75
1282.139969	690.25
1282.681748	690.0
1283.223472	694.0
1283.765139	698.5
1284.30675	709.5
1284.848304	755.75
1285.389803	920.0
1285.931245	1222.25
1286.472631	1033.0
1287.01396	779.25
1287.555233	710.0
1288.09645	700.25
1288.637611	694.5
1289.178716	692.75
1289.719764	691.25
1290.260756	689.25
1290.801692	689.75
1291.342572	686.0
1291.883395	686.25
1292.424162	693.75
1292.964873	686.25
1293.505528	685.5
1294.046126	687.0
1294.586669	687.0
1295.127155	687.0
1295.667585	685.0
1296.207958	681.75
1296.748276	684.0
1297.288537	688.0
1297.828743	684.25
1298.368892	682.0
1298.908984	690.25
1299.449021	684.75
1299.989002	688.25
1300.528926	682.75
1301.068794	683.75
1301.608606	680.25
1302.148362	687.25
1302.688062	689.0
1303.227705	686.0
1303.767293	689.25
1304.306824	687.5
1304.846299	683.25
1305.385718	686.5
1305.925081	686.0
1306.464388	685.75
1307.003639	680.5
1307.542833	687.0
1308.081972	684.5
1308.621054	685.5
1309.16008	685.5
1309.699051	686.0
1310.237965	685.5
1310.776823	683.5
1311.315625	686.5
1311.85437	686.0
1312.39306	681.5
1312.931694	685.5
1313.470271	681.0
1314.008793	682.5
1314.547258	686.5
1315.085668	682.0
1315.624021	686.5
1316.162318	686.5
1316.70056	686.0
1317.238745	684.75
1317.776874	687.75
1318.314947	683.25
1318.852964	686.25
1319.390925	684.25
1319.92883	683.0
1320.466679	684.5
1321.004472	685.25
1321.542209	683.75
1322.07989	683.75
1322.617515	686.0
1323.155084	685.5
1323.692597	691.0
1324.230054	687.0
1324.767455	684.25
1325.3048	686.25
1325.842089	686.5
1326.379322	685.5
1326.916499	684.5
1327.45362	687.0
1327.990685	684.75
1328.527694	683.75
1329.064647	687.25
1329.601544	684.0
1330.138386	687.0
1330.675171	682.0
1331.2119	683.25
1331.748574	685.25
1332.285191	688.75
1332.821753	684.75
1333.358258	686.25
1333.894708	685.25
1334.431102	681.0
1334.967439	684.0
1335.503721	685.75
1336.039947	688.75
1336.576117	686.25
1337.112232	687.75
1337.64829	684.0
1338.184292	685.75
1338.720239	688.25
1339.256129	683.25
1339.791964	686.5
1340.327743	683.5
1340.863466	684.25
1341.399133	686.0
1341.934744	685.75
1342.470299	685.5
1343.005799	685.25
1343.541243	685.75
1344.07663	682.75
1344.611962	687.0
1345.147238	683.5
1345.682458	686.75
1346.217623	684.5
1346.752731	685.25
1347.287784	681.5
1347.822781	685.5
1348.357722	683.5
1348.892607	685.75
1349.427437	689.25
1349.96221	686.0
1350.496928	685.0
1351.03159	687.25
1351.566196	683.5
1352.100746	687.5
1352.635241	686.0
1353.16968	687.5
1353.704063	689.5
1354.23839	686.75
1354.772661	686.25
1355.306877	682.0
1355.841037	686.75
1356.375141	686.75
1356.909189	682.0
1357.443182	684.0
1357.977118	686.25
1358.510999	683.25
1359.044825	686.0
1359.578594	684.75
1360.112308	686.5
1360.645966	683.5
1361.179568	685.0
1361.713115	686.0
1362.246606	686.25
1362.780041	687.75
1363.31342	683.25
1363.846744	681.75
1364.380012	682.5
1364.913224	683.75
1365.446381	689.25
1365.979482	685.0
1366.512527	690.25
1367.045516	687.75
1367.57845	688.25
1368.111328	686.5
1368.644151	682.75
1369.176917	684.25
1369.709628	687.75
1370.242284	690.25
1370.774884	700.5
1371.307428	694.25
1371.839916	691.5
1372.372349	686.25
1372.904726	686.5
1373.437047	686.5
1373.969313	683.5
1374.501523	686.25
1375.033678	684.75
1375.565776	684.5
1376.09782	684.25
1376.629807	684.0
1377.161739	686.0
1377.693615	684.0
1378.225436	690.75
1378.757201	688.25
1379.288911	686.75
1379.820565	687.5
1380.352163	686.75
1380.883706	687.0
1381.415193	687.0
1381.946624	686.75
1382.478	688.75
1383.009321	687.0
1383.540585	686.0
1384.071795	687.5
1384.602948	690.0
1385.134046	687.5
1385.665089	692.75
1386.196076	695.0
1386.727007	703.0
1387.257883	705.0
1387.788703	724.0
1388.319468	811.0
1388.850177	1286.0
1389.38083	1610.5
1389.911429	952.5
1390.441971	735.75
1390.972458	704.5
1391.50289	694.25
1392.033266	694.5
1392.563586	688.0
1393.093851	691.25
1393.624061	690.75
1394.154214	690.5
1394.684313	689.5
1395.214356	686.0
1395.744343	686.25
1396.274275	689.75
1396.804152	690.0
1397.333973	687.25
1397.863738	684.0
1398.393448	689.75
1398.923103	686.25
1399.452702	682.0
1399.982246	682.5
1400.511734	684.0
1401.041167	684.25
1401.570544	686.0
1402.099866	686.75
1402.629132	685.25
1403.158343	689.0
1403.687498	683.75
1404.216598	688.25
1404.745643	686.5
1405.274632	686.0
1405.803566	683.5
1406.332444	687.5
1406.861267	687.0
1407.390035	683.25
1407.918747	686.0
1408.447404	689.5
1408.976005	692.75
1409.504551	697.5
1410.033041	728.25
1410.561476	758.0
1411.089856	731.25
1411.618181	704.0
1412.14645	691.75
1412.674663	686.5
1413.202821	686.75
1413.730924	690.75
1414.258972	685.25
1414.786964	687.5
1415.314901	699.25
1415.842782	684.25
1416.370608	686.25
1416.898379	687.5
1417.426094	689.0
1417.953754	683.75
1418.481359	688.0
1419.008908	687.25
1419.536402	686.25
1420.063841	686.25
1420.591225	686.25
1421.118553	686.25
1421.645826	685.0
1422.173043	685.5
1422.700205	685.0
1423.227312	689.25
1423.754364	686.5
1424.28136	685.25
1424.808301	687.5
1425.335187	686.75
1425.862017	687.5
1426.388792	687.5
1426.915512	687.75
1427.442177	684.75
1427.968786	684.25
1428.49534	681.5
1429.021839	684.75
1429.548282	685.25
1430.074671	682.25
1430.601004	686.0
1431.127281	687.5
1431.653504	687.75
1432.179671	685.0
1432.705783	686.5
1433.23184	688.5
1433.757842	684.0
1434.283788	686.75
1434.809679	684.25
1435.335515	686.75
1435.861296	683.5
1436.387022	684.0
1436.912692	679.5
1437.438307	684.0
1437.963867	684.0
1438.489372	687.75
1439.014821	682.75
1439.540216	683.25
1440.065555	680.25
1440.590839	682.0
1441.116068	685.75
1441.641241	683.75
1442.16636	684.75
1442.691423	684.25
1443.216431	684.5
1443.741384	682.75
1444.266282	680.25
1444.791125	683.75
1445.315912	684.25
1445.840645	684.5
1446.365322	681.5
1446.889944	685.75
1447.414511	685.0
1447.939023	682.0
1448.463479	682.5
1448.987881	684.75
1449.512228	684.75
1450.036519	682.5
1450.560755	684.0
1451.084936	682.0
1451.609062	682.75
1452.133133	683.75
1452.657149	686.75
1453.18111	687.25
1453.705016	683.25
1454.228866	684.5
1454.752662	683.5
1455.276402	681.5
1455.800088	685.5
1456.323718	686.0
1456.847293	683.0
1457.370813	686.0
1457.894278	682.75
1458.417689	685.75
1458.941044	681.25
1459.464344	684.0
1459.987588	684.5
1460.510778	683.5
1461.033913	685.25
1461.556993	682.5
1462.080018	682.75
1462.602987	687.25
1463.125902	690.75
1463.648762	685.75
1464.171567	682.0
1464.694316	680.0
1465.217011	681.75
1465.739651	685.25
1466.262235	685.25
1466.784765	684.5
1467.30724	685.25
1467.829659	684.25
1468.352024	682.75
1468.874334	682.75
1469.396589	682.25
1469.918788	680.5
1470.440933	684.75
1470.963023	684.0
1471.485058	684.5
1472.007038	683.0
1472.528963	682.0
1473.050833	682.5
1473.572648	681.75
1474.094408	687.75
1474.616113	681.5
1475.137763	679.0
1475.659358	682.0
1476.180899	680.75
1476.702384	678.25
1477.223815	684.5
1477.74519	680.0
1478.266511	681.0
1478.787777	681.75
1479.308988	682.75
1479.830144	684.5
1480.351245	682.5
1480.872291	680.0
1481.393282	682.5
1481.914218	683.25
1482.4351	683.0
1482.955926	682.5
1483.476698	677.25
1483.997415	679.75
1484.518077	681.25
1485.038684	681.5
1485.559236	678.25
1486.079734	680.0
1486.600176	680.25
1487.120564	680.5
1487.640896	682.0
1488.161174	681.0
1488.681398	684.25
1489.201566	680.75
1489.721679	684.5
1490.241738	681.0
1490.761742	682.75
1491.281691	678.5
1491.801585	684.0
1492.321424	678.5
1492.841208	678.75
1493.360938	683.75
1493.880613	678.5
1494.400233	682.5
1494.919798	679.0
1495.439309	684.25
1495.958764	681.0
1496.478165	682.0
1496.997511	683.0
1497.516803	681.75
1498.036039	682.25
1498.555221	685.5
1499.074348	682.5
1499.59342	688.75
1500.112438	684.0
1500.6314	681.0
1501.150308	684.0
1501.669161	681.5
1502.18796	683.5
1502.706704	681.25
1503.225393	682.0
1503.744027	683.5
1504.262606	679.5
1504.781131	680.75
1505.299601	679.75
1505.818016	680.5
1506.336377	682.25
1506.854683	681.0
1507.372934	679.75
1507.89113	681.5
1508.409272	678.25
1508.927359	680.5
1509.445391	680.75
1509.963369	681.75
1510.481292	694.0
1510.99916	680.25
1511.516974	683.25
1512.034733	682.0
1512.552437	678.0
1513.070086	680.75
1513.587681	681.75
1514.105221	684.25
1514.622707	680.0
1515.140138	680.5
1515.657514	681.25
1516.174836	679.25
1516.692102	681.0
1517.209315	681.5
1517.726472	679.0
1518.243575	681.5
1518.760624	681.75
1519.277617	683.25
1519.794557	680.5
1520.311441	682.0
1520.828271	680.0
1521.345046	678.75
1521.861767	680.75
1522.378433	686.0
1522.895044	683.0
1523.411601	681.5
1523.928103	679.0
1524.444551	679.25
1524.960944	681.25
1525.477282	681.25
1525.993566	683.5
1526.509795	685.0
1527.02597	683.0
1527.54209	679.5
1528.058156	678.0
1528.574167	680.25
1529.090123	685.5
1529.606025	683.0
1530.121872	682.25
1530.637665	682.75
1531.153403	681.25
1531.669087	677.25
1532.184716	682.5
1532.700291	680.5
1533.215811	679.75
1533.731276	682.5
1534.246687	683.25
1534.762044	681.5
1535.277346	687.5
1535.792593	680.75
1536.307786	682.0
1536.822924	683.0
1537.338008	680.0
1537.853038	679.0
1538.368013	682.25
1538.882933	678.5
1539.397799	681.0
1539.91261	682.5
1540.427367	682.5
1540.94207	677.25
1541.456718	677.0
1541.971311	680.5
1542.48585	681.0
1543.000335	680.0
1543.514765	677.5
1544.029141	681.5
1544.543462	678.25
1545.057729	685.5
1545.571941	677.5
1546.086099	679.0
1546.600202	679.75
1547.114251	679.25
1547.628246	682.75
1548.142186	681.75
1548.656072	680.0
1549.169903	682.0
1549.68368	682.75
1550.197402	681.0
1550.71107	684.75
1551.224684	683.0
1551.738243	681.0
1552.251748	681.75
1552.765198	683.75
1553.278594	680.0
1553.791936	680.5
1554.305223	680.0
1554.818456	683.5
1555.331634	679.5
1555.844758	681.75
1556.357828	681.5
1556.870843	680.75
1557.383804	681.5
1557.896711	681.5
1558.409563	675.75
1558.922361	679.25
1559.435105	679.75
1559.947794	679.5
1560.460429	679.5
1560.973009	683.0
1561.485535	678.5
1561.998007	684.0
1562.510425	680.25
1563.022788	684.0
1563.535097	680.25
1564.047351	680.0
1564.559551	684.5
1565.071697	679.25
1565.583789	681.75
1566.095826	682.0
1566.607809	680.75
1567.119738	681.5
1567.631612	681.0
1568.143432	683.75
1568.655198	678.25
1569.16691	682.5
1569.678567	681.25
1570.19017	681.5
1570.701719	682.75
1571.213213	680.5
1571.724653	683.0
1572.236039	678.5
1572.747371	681.0
1573.258648	678.25
1573.769871	679.75
1574.28104	680.0
1574.792155	680.25
1575.303215	681.25
1575.814221	683.25
1576.325173	681.25
1576.836071	683.25
1577.346914	679.25
1577.857703	686.25
1578.368438	680.0
1578.879119	682.25
1579.389746	680.0
1579.900318	680.0
1580.410836	681.5
1580.9213	682.75
1581.43171	680.0
1581.942065	676.5
1582.452366	682.5
1582.962614	678.0
1583.472807	680.0
1583.982945	681.75
1584.49303	679.5
1585.00306	679.5
1585.513037	677.5
1586.022959	681.5
1586.532827	681.75
1587.04264	680.25
1587.5524	681.5
1588.062105	679.75
1588.571757	680.75
1589.081354	680.75
1589.590897	679.0
1590.100386	681.5
1590.60982	680.0
1591.119201	680.0
1591.628527	682.75
1592.1378	676.5
