1042.208489	703.25
1042.775002	700.5
1043.341458	694.75
1043.907855	698.25
1044.474195	700.0
1045.040476	693.25
1045.6067	695.25
1046.172866	693.5
1046.738974	694.0
1047.305024	689.5
1047.871015	693.25
1048.436949	690.25
1049.002825	691.0
1049.568644	687.5
1050.134404	689.75
1050.700106	688.5
1051.26575	687.75
1051.831337	686.25
1052.396865	686.0
1052.962336	686.25
1053.527749	683.5
1054.093103	685.0
1054.6584	685.75
1055.223639	685.25
1055.788821	687.5
1056.353944	683.25
1056.919009	686.25
1057.484017	680.25
1058.048967	683.0
1058.613858	683.0
1059.178692	686.25
1059.743468	682.5
1060.308187	679.5
1060.872847	678.5
1061.43745	678.0
1062.001994	681.5
1062.566481	678.75
1063.13091	685.0
1063.695281	681.75
1064.259595	677.25
1064.82385	681.25
1065.388048	679.75
1065.952188	682.5
1066.51627	682.0
1067.080295	681.5
1067.644261	676.75
1068.20817	681.25
1068.772021	679.25
1069.335814	684.25
1069.899549	684.0
1070.463227	682.25
1071.026847	679.25
1071.590409	680.75
1072.153913	684.0
1072.717359	680.0
1073.280748	681.0
1073.844079	681.75
1074.407352	682.0
1074.970568	679.75
1075.533726	678.25
1076.096826	677.0
1076.659868	681.75
1077.222853	682.0
1077.785779	679.0
1078.348648	680.5
1078.91146	679.5
1079.474214	678.25
1080.036909	681.75
1080.599548	678.75
1081.162128	681.25
1081.724651	679.5
1082.287116	684.25
1082.849524	675.5
1083.411873	678.25
1083.974165	678.0
1084.5364	679.25
1085.098577	677.5
1085.660696	682.25
1086.222757	678.0
1086.784761	681.5
1087.346707	681.0
1087.908595	677.0
1088.470426	680.75
1089.032199	679.0
1089.593914	681.5
1090.155572	679.5
1090.717172	682.75
1091.278715	678.25
1091.8402	681.25
1092.401627	678.75
1092.962997	680.25
1093.524309	678.75
1094.085563	678.5
1094.64676	682.5
1095.207899	689.0
1095.768981	679.25
1096.330005	678.5
1096.890971	688.5
1097.45188	682.5
1098.012732	677.25
1098.573525	679.75
1099.134261	682.25
1099.69494	678.25
1100.255561	682.25
1100.816124	683.0
1101.37663	676.0
1101.937078	678.25
1102.497469	676.25
1103.057802	678.5
1103.618078	678.5
1104.178296	679.5
1104.738456	680.0
1105.298559	682.25
1105.858605	678.25
1106.418593	677.5
1106.978523	680.25
1107.538396	678.0
1108.098212	682.0
1108.657969	685.0
1109.21767	680.5
1109.777313	681.0
1110.336898	679.75
1110.896426	674.5
1111.455896	680.25
1112.015309	680.5
1112.574665	680.5
1113.133963	679.75
1113.693203	682.75
1114.252386	682.75
1114.811512	678.0
1115.37058	679.5
1115.92959	681.5
1116.488544	681.5
1117.047439	678.25
1117.606278	680.25
1118.165058	682.25
1118.723782	681.0
1119.282448	675.25
1119.841056	681.75
1120.399607	679.25
1120.958101	678.25
1121.516537	680.75
1122.074916	682.5
1122.633237	679.75
1123.191501	679.75
1123.749708	682.25
1124.307857	683.25
1124.865949	678.5
1125.423984	679.5
1125.981961	675.25
1126.53988	681.25
1127.097742	678.75
1127.655547	678.75
1128.213295	678.5
1128.770985	681.75
1129.328618	678.5
1129.886193	677.75
1130.443711	678.75
1131.001172	679.75
1131.558575	682.25
1132.115921	679.0
1132.67321	680.25
1133.230441	682.5
1133.787615	676.0
1134.344732	679.25
1134.901792	683.25
1135.458794	685.75
1136.015738	677.5
1136.572626	681.75
1137.129456	682.5
1137.686229	677.0
1138.242944	682.25
1138.799602	682.0
1139.356203	683.5
1139.912747	682.25
1140.469233	682.25
1141.025662	683.75
1141.582034	682.0
1142.138348	684.75
1142.694606	682.25
1143.250806	688.75
1143.806948	701.75
1144.363034	699.0
1144.919062	690.75
1145.475033	685.0
1146.030946	687.25
1146.586803	687.75
1147.142602	700.0
1147.698344	725.25
1148.254029	732.0
1148.809656	710.75
1149.365227	712.0
1149.92074	740.75
1150.476195	864.75
1151.031594	1087.25
1151.586936	997.25
1152.14222	772.75
1152.697447	711.25
1153.252617	695.0
1153.807729	689.5
1154.362785	689.75
1154.917783	684.0
1155.472724	684.0
1156.027608	681.75
1156.582435	680.75
1157.137204	684.5
1157.691917	681.0
1158.246572	678.25
1158.80117	682.5
1159.355711	680.0
1159.910195	680.75
1160.464621	682.0
1161.018991	680.5
1161.573303	683.5
1162.127558	679.5
1162.681756	680.25
1163.235897	684.25
1163.789981	681.75
1164.344008	683.5
1164.897978	679.0
1165.45189	681.0
1166.005745	682.0
1166.559544	680.75
1167.113285	682.25
1167.666969	681.0
1168.220596	676.25
1168.774166	677.5
1169.327679	679.0
1169.881135	680.75
1170.434533	680.5
1170.987875	680.0
1171.541159	683.0
1172.094387	683.5
1172.647557	680.5
1173.200671	676.75
1173.753727	683.25
1174.306726	680.25
1174.859668	678.75
1175.412554	678.0
1175.965382	679.5
1176.518153	680.0
1177.070867	678.25
1177.623524	676.0
1178.176124	678.75
1178.728667	677.5
1179.281153	678.25
1179.833582	679.0
1180.385954	680.0
1180.938269	681.25
1181.490527	678.5
1182.042728	678.25
1182.594872	681.25
1183.146959	681.0
1183.698989	682.0
1184.250962	682.0
1184.802878	681.75
1185.354737	679.75
1185.906539	679.5
1186.458285	679.75
1187.009973	681.75
1187.561604	677.25
1188.113178	678.5
1188.664696	680.0
1189.216156	676.75
1189.76756	680.5
1190.318906	679.25
1190.870196	676.5
1191.421429	680.0
1191.972604	681.75
1192.523723	679.5
1193.074785	700.75
1193.62579	679.75
1194.176738	679.5
1194.727629	683.0
1195.278464	678.0
1195.829241	676.75
1196.379962	678.0
1196.930625	681.0
1197.481232	677.0
1198.031782	679.75
1198.582275	678.5
1199.132711	680.75
1199.68309	680.0
1200.233413	681.5
1200.783678	680.0
1201.333887	677.25
1201.884039	679.25
1202.434134	680.5
1202.984172	681.0
1203.534153	680.5
1204.084077	681.0
1204.633945	680.75
1205.183756	681.5
1205.73351	680.0
1206.283207	679.25
1206.832847	679.75
1207.38243	678.75
1207.931957	675.5
1208.481427	680.0
1209.03084	678.0
1209.580196	678.5
1210.129496	682.0
1210.678738	678.25
1211.227924	679.5
1211.777053	678.5
1212.326126	679.0
1212.875141	678.0
1213.4241	680.75
1213.973002	679.0
1214.521847	682.5
1215.070636	681.5
1215.619367	677.0
1216.168042	680.25
1216.71666	674.5
1217.265222	679.5
1217.813726	678.5
1218.362174	676.5
1218.910566	680.25
1219.4589	680.75
1220.007178	683.5
1220.555399	678.0
1221.103563	680.25
1221.651671	679.0
1222.199722	680.0
1222.747716	677.25
1223.295653	680.0
1223.843534	679.5
1224.391358	676.25
1224.939126	683.5
1225.486836	678.25
1226.03449	682.0
1226.582088	684.0
1227.129628	681.5
1227.677112	674.75
1228.22454	675.75
1228.77191	680.25
1229.319224	678.25
1229.866482	680.0
1230.413682	676.5
1230.960826	676.75
1231.507914	681.25
1232.054945	680.25
1232.601919	679.0
1233.148836	681.0
1233.695697	682.5
1234.242501	679.25
1234.789249	683.0
1235.33594	682.0
1235.882574	683.25
1236.429152	678.5
1236.975673	680.75
1237.522138	681.25
1238.068545	679.5
1238.614897	676.5
1239.161191	679.75
1239.70743	679.25
1240.253611	682.5
1240.799736	680.0
1241.345805	679.25
1241.891816	679.75
1242.437772	677.0
1242.98367	678.75
1243.529512	675.75
1244.075298	683.5
1244.621027	681.5
1245.1667	682.25
1245.712315	679.25
1246.257875	674.5
1246.803378	681.25
1247.348824	678.0
1247.894214	678.5
1248.439547	677.0
1248.984824	680.0
1249.530044	680.75
1250.075208	683.0
1250.620315	680.75
1251.165365	680.75
1251.71036	682.25
1252.255297	682.75
1252.800178	681.25
1253.345003	680.75
1253.889771	683.25
1254.434483	677.5
1254.979138	677.75
1255.523737	679.0
1256.068279	678.5
1256.612765	679.75
1257.157194	681.75
1257.701567	680.0
1258.245884	678.75
1258.790143	675.5
1259.334347	682.0
1259.878494	699.25
1260.422585	683.75
1260.966619	677.75
1261.510596	677.0
1262.054518	679.0
1262.598383	685.75
1263.142191	685.25
1263.685943	684.75
1264.229639	691.25
1264.773278	696.0
1265.316861	716.25
1265.860387	727.5
1266.403857	709.25
1266.947271	691.25
1267.490628	685.75
1268.033929	682.75
1268.577173	679.75
1269.120361	682.75
1269.663493	678.5
1270.206568	678.5
1270.749587	680.0
1271.292549	680.5
1271.835456	678.75
1272.378305	678.25
1272.921099	677.5
1273.463836	682.0
1274.006517	680.0
1274.549141	682.25
1275.091709	676.75
1275.634221	676.5
1276.176676	679.0
1276.719075	678.25
1277.261418	677.5
1277.803704	677.25
1278.345935	679.0
1278.888108	686.0
1279.430226	678.0
1279.972287	680.75
1280.514292	681.25
1281.05624	684.25
1281.598133	682.75
1282.139969	682.75
1282.681748	683.75
1283.223472	692.75
1283.765139	700.25
1284.30675	708.0
1284.848304	776.25
1285.389803	975.25
1285.931245	1364.5
1286.472631	1124.5
1287.01396	786.25
1287.555233	714.0
1288.09645	693.75
1288.637611	687.5
1289.178716	685.5
1289.719764	683.25
1290.260756	683.0
1290.801692	681.25
1291.342572	679.75
1291.883395	677.75
1292.424162	681.5
1292.964873	679.0
1293.505528	678.25
1294.046126	681.25
1294.586669	678.0
1295.127155	678.0
1295.667585	681.0
1296.207958	678.75
1296.748276	676.5
1297.288537	679.25
1297.828743	677.25
1298.368892	681.25
1298.908984	678.0
1299.449021	677.75
1299.989002	678.25
1300.528926	681.0
1301.068794	674.75
1301.608606	677.75
1302.148362	683.25
1302.688062	679.25
1303.227705	677.25
1303.767293	677.5
1304.306824	678.75
1304.846299	674.0
1305.385718	679.25
1305.925081	677.5
1306.464388	675.25
1307.003639	677.75
1307.542833	678.5
1308.081972	674.5
1308.621054	676.25
1309.16008	680.75
1309.699051	679.75
1310.237965	677.5
1310.776823	673.0
1311.315625	679.75
1311.85437	679.0
1312.39306	678.5
1312.931694	676.5
1313.470271	678.75
1314.008793	676.0
1314.547258	680.75
1315.085668	678.25
1315.624021	679.0
1316.162318	677.75
1316.70056	677.5
1317.238745	677.75
1317.776874	680.0
1318.314947	677.0
1318.852964	679.75
1319.390925	679.75
1319.92883	679.0
1320.466679	678.75
1321.004472	680.5
1321.542209	676.5
1322.07989	676.0
1322.617515	677.25
1323.155084	679.0
1323.692597	682.0
1324.230054	680.25
1324.767455	677.5
1325.3048	681.0
1325.842089	679.75
1326.379322	679.5
1326.916499	681.75
1327.45362	676.0
1327.990685	678.5
1328.527694	680.0
1329.064647	676.75
1329.601544	678.25
1330.138386	674.5
1330.675171	677.0
1331.2119	677.5
1331.748574	680.5
1332.285191	674.75
1332.821753	674.75
1333.358258	681.75
1333.894708	679.0
1334.431102	676.75
1334.967439	681.0
1335.503721	681.0
1336.039947	682.0
1336.576117	676.25
1337.112232	681.25
1337.64829	678.5
1338.184292	680.25
1338.720239	679.25
1339.256129	680.25
1339.791964	677.75
1340.327743	676.25
1340.863466	681.5
1341.399133	682.5
1341.934744	677.25
1342.470299	679.75
1343.005799	678.25
1343.541243	679.75
1344.07663	681.5
1344.611962	680.25
1345.147238	682.0
1345.682458	679.25
1346.217623	682.0
1346.752731	678.75
1347.287784	676.0
1347.822781	679.75
1348.357722	681.75
1348.892607	676.75
1349.427437	678.25
1349.96221	679.75
1350.496928	678.75
1351.03159	677.25
1351.566196	680.5
1352.100746	681.0
1352.635241	679.75
1353.16968	681.75
1353.704063	680.25
1354.23839	677.5
1354.772661	680.25
1355.306877	680.25
1355.841037	678.25
1356.375141	679.5
1356.909189	678.25
1357.443182	677.5
1357.977118	679.5
1358.510999	675.75
1359.044825	677.5
1359.578594	678.25
1360.112308	679.75
1360.645966	679.75
1361.179568	677.25
1361.713115	679.0
1362.246606	680.25
1362.780041	674.25
1363.31342	675.75
1363.846744	678.25
1364.380012	678.75
1364.913224	681.5
1365.446381	679.0
1365.979482	678.5
1366.512527	681.25
1367.045516	682.75
1367.57845	683.25
1368.111328	676.75
1368.644151	682.0
1369.176917	683.25
1369.709628	679.75
1370.242284	683.5
1370.774884	700.25
1371.307428	690.5
1371.839916	680.0
1372.372349	677.75
1372.904726	681.25
1373.437047	682.75
1373.969313	678.75
1374.501523	675.75
1375.033678	682.0
1375.565776	678.25
1376.09782	681.75
1376.629807	679.25
1377.161739	680.0
1377.693615	679.5
1378.225436	680.5
1378.757201	681.0
1379.288911	683.5
1379.820565	679.0
1380.352163	680.5
1380.883706	679.25
1381.415193	681.75
1381.946624	680.0
1382.478	680.75
1383.009321	678.75
1383.540585	678.5
1384.071795	680.25
1384.602948	681.0
1385.134046	679.5
1385.665089	691.5
1386.196076	694.0
1386.727007	696.5
1387.257883	706.75
1387.788703	734.5
1388.319468	871.5
1388.850177	1490.75
1389.38083	1867.25
1389.911429	1009.75
1390.441971	746.0
1390.972458	705.5
1391.50289	693.5
1392.033266	685.25
1392.563586	684.75
1393.093851	682.0
1393.624061	682.25
1394.154214	681.75
1394.684313	680.5
1395.214356	683.0
1395.744343	684.5
1396.274275	678.0
1396.804152	679.0
1397.333973	682.75
1397.863738	680.0
1398.393448	683.0
1398.923103	679.25
1399.452702	682.75
1399.982246	680.25
1400.511734	676.25
1401.041167	678.75
1401.570544	681.25
1402.099866	680.25
1402.629132	682.25
1403.158343	675.75
1403.687498	677.25
1404.216598	684.5
1404.745643	678.0
1405.274632	680.5
1405.803566	674.75
1406.332444	678.75
1406.861267	681.25
1407.390035	681.25
1407.918747	682.75
1408.447404	686.0
1408.976005	687.25
1409.504551	696.0
1410.033041	737.25
1410.561476	774.5
1411.089856	728.5
1411.618181	699.25
1412.14645	686.0
1412.674663	683.25
1413.202821	676.0
1413.730924	678.0
1414.258972	676.0
1414.786964	674.5
1415.314901	695.0
1415.842782	679.0
1416.370608	676.25
1416.898379	678.25
1417.426094	680.25
1417.953754	681.0
1418.481359	677.5
1419.008908	678.25
1419.536402	676.75
1420.063841	677.0
1420.591225	677.75
1421.118553	676.5
1421.645826	674.75
1422.173043	676.75
1422.700205	678.25
1423.227312	678.5
1423.754364	674.5
1424.28136	677.5
1424.808301	674.5
1425.335187	675.0
1425.862017	681.75
1427.442177	684.0
1427.968786	675.5
1428.49534	678.25
1429.021839	680.5
1429.548282	675.75
1430.074671	675.75
1430.601004	677.5
1431.127281	678.5
1431.653504	680.5
1432.179671	676.5
1432.705783	680.0
1433.23184	675.5
1433.757842	678.75
1434.283788	677.75
1434.809679	675.25
1435.335515	677.75
1435.861296	678.75
1436.387022	674.25
1436.912692	673.0
1437.438307	676.5
1437.963867	678.5
1438.489372	677.5
1439.014821	679.0
1439.540216	677.75
1440.065555	677.75
1440.590839	676.5
1441.116068	673.5
1441.641241	679.75
1442.16636	677.5
1442.691423	676.25
1443.216431	678.0
1443.741384	671.75
1444.266282	675.25
1444.791125	675.0
1445.315912	676.25
1445.840645	674.75
1446.365322	675.0
1446.889944	675.75
1447.414511	681.75
1447.939023	674.0
1448.463479	675.25
1448.987881	673.25
1449.512228	674.5
1450.036519	675.25
1450.560755	674.5
1451.084936	676.75
1451.609062	674.0
1452.133133	672.75
1452.657149	677.25
1453.18111	676.5
1453.705016	677.5
1454.228866	673.25
1454.752662	676.25
1455.276402	671.5
1455.800088	675.75
1456.323718	675.0
1456.847293	673.75
1457.370813	673.5
1457.894278	674.0
1458.417689	676.75
1458.941044	675.75
1459.464344	674.0
1459.987588	673.5
1460.510778	675.75
1461.033913	674.25
1461.556993	679.75
1462.080018	676.5
1462.602987	681.0
1463.125902	692.75
1463.648762	679.75
1464.171567	674.0
1464.694316	674.0
1465.217011	674.25
1465.739651	671.75
1466.262235	672.25
1466.784765	677.75
1467.30724	675.25
1467.829659	677.25
1468.352024	675.5
1468.874334	672.0
1469.396589	675.0
1469.918788	672.75
1470.440933	674.25
1470.963023	678.0
1471.485058	676.75
1472.007038	674.5
1472.528963	673.0
1473.050833	676.25
1473.572648	677.25
1474.094408	675.5
1474.616113	672.25
1475.137763	675.0
1475.659358	676.5
1476.180899	673.25
1476.702384	673.0
1477.223815	673.5
1477.74519	675.0
1478.266511	674.0
1478.787777	676.0
1479.308988	671.5
1479.830144	672.5
1480.351245	671.25
1480.872291	673.75
1481.393282	671.75
1481.914218	675.0
1482.4351	677.0
1482.955926	672.25
1483.476698	676.25
1483.997415	676.75
1484.518077	672.25
1485.038684	673.5
1485.559236	676.25
1486.079734	674.25
1486.600176	674.5
1487.120564	675.5
1487.640896	675.75
1488.161174	672.25
1488.681398	673.25
1489.201566	674.75
1489.721679	671.5
1490.241738	673.5
1490.761742	671.5
1491.281691	672.75
1491.801585	674.0
1492.321424	671.25
1492.841208	673.0
1493.360938	678.0
1493.880613	674.0
1494.400233	673.5
1494.919798	675.5
1495.439309	672.25
1495.958764	677.0
1496.478165	671.0
1496.997511	676.5
1497.516803	672.5
1498.036039	673.0
1498.555221	676.0
1499.074348	671.75
1499.59342	678.75
1500.112438	673.0
1500.6314	675.75
1501.150308	672.25
1501.669161	672.25
1502.18796	675.5
1502.706704	673.75
1503.225393	673.25
1503.744027	674.0
1504.262606	675.25
1504.781131	673.75
1505.299601	675.0
1505.818016	673.25
1506.336377	671.25
1506.854683	672.75
1507.372934	672.5
1507.89113	674.75
1508.409272	673.0
1508.927359	675.25
1509.445391	671.75
1509.963369	677.5
1510.481292	679.75
1510.99916	673.25
1511.516974	671.5
1512.034733	675.25
1512.552437	675.25
1513.070086	676.5
1513.587681	675.0
1514.105221	676.75
1514.622707	672.5
1515.140138	674.75
1515.657514	674.25
1516.174836	673.0
1516.692102	672.25
1517.209315	673.25
1517.726472	674.0
1518.243575	675.0
1518.760624	672.25
1519.277617	675.25
1519.794557	670.25
1520.311441	674.5
1520.828271	673.75
1521.345046	673.75
1521.861767	671.75
1522.378433	674.75
1522.895044	675.0
1523.411601	673.75
1523.928103	674.0
1524.444551	671.25
1524.960944	674.75
1525.477282	673.0
1525.993566	680.25
1526.509795	679.0
1527.02597	674.25
1527.54209	674.75
1528.058156	670.75
1528.574167	675.25
1529.090123	675.25
1529.606025	674.75
1530.121872	668.25
1530.637665	675.0
1531.153403	673.75
1531.669087	673.25
1532.184716	672.5
1532.700291	671.75
1533.215811	675.0
1533.731276	674.0
1534.246687	678.25
1534.762044	673.75
1535.277346	672.75
1535.792593	674.5
1536.307786	671.75
1536.822924	675.5
1537.338008	674.5
1537.853038	673.0
1538.368013	673.75
1538.882933	670.75
1539.397799	670.75
1539.91261	674.75
1540.427367	673.25
1540.94207	674.5
1541.456718	670.75
1541.971311	675.25
1542.48585	674.75
1543.000335	670.75
1543.514765	671.25
1544.029141	675.5
1544.543462	671.0
1545.057729	672.5
1545.571941	674.25
1546.086099	672.5
1546.600202	675.75
1547.114251	670.75
1547.628246	674.5
1548.142186	671.5
1548.656072	674.0
1549.169903	670.75
1549.68368	674.5
1550.197402	674.25
1550.71107	674.0
1551.224684	673.5
1551.738243	672.25
1552.251748	669.0
1552.765198	672.75
1553.278594	672.25
1553.791936	673.75
1554.305223	671.25
1554.818456	672.0
1555.331634	669.75
1555.844758	670.0
1556.357828	674.0
1556.870843	672.5
1557.383804	673.5
1557.896711	672.25
1558.409563	675.0
1558.922361	674.25
1559.435105	674.5
1559.947794	673.25
1560.460429	672.25
1560.973009	675.0
1561.485535	671.0
1561.998007	672.5
1562.510425	670.0
1563.022788	673.5
1563.535097	673.75
1564.047351	672.75
1564.559551	674.25
1565.071697	674.25
1565.583789	672.0
1566.095826	674.5
1566.607809	670.75
1567.119738	673.75
1567.631612	671.5
1568.143432	676.0
1568.655198	671.75
1569.16691	674.5
1569.678567	672.5
1570.19017	673.5
1570.701719	672.5
1571.213213	675.5
1571.724653	674.5
1572.236039	673.75
1572.747371	672.25
1573.258648	675.75
1573.769871	672.75
1574.28104	671.0
1574.792155	671.25
1575.303215	679.0
1575.814221	674.25
1576.325173	671.75
1576.836071	670.25
1577.346914	672.25
1577.857703	674.5
1578.368438	672.25
1578.879119	671.25
1579.389746	672.75
1579.900318	674.5
1580.410836	672.75
1580.9213	673.75
1581.43171	671.5
1581.942065	674.25
1582.452366	671.0
1582.962614	671.75
1583.472807	673.25
1583.982945	670.0
1584.49303	673.75
1585.00306	672.75
1585.513037	671.5
1586.022959	671.5
1586.532827	675.25
1587.04264	672.25
1587.5524	672.5
1588.062105	671.5
1588.571757	671.5
1589.081354	671.75
1589.590897	674.0
1590.100386	669.5
1590.60982	675.5
1591.119201	669.5
1591.628527	675.5
1592.1378	672.0
