1042.208489	701.25
1042.775002	702.75
1043.341458	699.0
1043.907855	696.75
1044.474195	698.5
1045.040476	697.5
1045.6067	694.25
1046.172866	693.5
1046.738974	694.5
1047.305024	691.5
1047.871015	692.0
1048.436949	692.5
1049.002825	691.5
1049.568644	689.0
1050.134404	688.75
1050.700106	687.25
1051.26575	685.0
1051.831337	689.5
1052.396865	687.5
1052.962336	685.75
1053.527749	686.0
1054.093103	684.0
1054.6584	686.0
1055.223639	686.0
1055.788821	684.25
1056.353944	685.0
1056.919009	689.0
1057.484017	682.75
1058.048967	683.25
1058.613858	686.0
1059.178692	684.0
1059.743468	685.25
1060.308187	680.25
1060.872847	683.25
1061.43745	680.0
1062.001994	681.5
1062.566481	684.0
1063.13091	684.0
1063.695281	680.0
1064.259595	681.25
1064.82385	682.75
1065.388048	680.0
1065.952188	684.0
1066.51627	679.5
1067.080295	681.0
1067.644261	679.25
1068.20817	678.0
1068.772021	678.75
1069.335814	680.25
1069.899549	688.0
1070.463227	681.75
1071.026847	680.0
1071.590409	678.5
1072.153913	676.25
1072.717359	677.75
1073.280748	683.75
1073.844079	678.75
1074.407352	677.25
1074.970568	684.0
1075.533726	678.5
1076.096826	679.25
1076.659868	680.0
1077.222853	682.25
1078.91146	678.0
1079.474214	680.5
1080.036909	678.25
1080.599548	679.5
1081.162128	675.25
1081.724651	681.0
1082.287116	680.75
1082.849524	675.25
1083.411873	677.75
1083.974165	680.0
1084.5364	677.25
1085.098577	680.0
1085.660696	681.0
1086.222757	675.75
1086.784761	680.5
1087.346707	679.75
1087.908595	676.0
1088.470426	680.25
1089.032199	678.0
1089.593914	675.5
1090.155572	682.0
1090.717172	675.0
1091.278715	679.0
1091.8402	674.75
1092.401627	682.0
1092.962997	679.0
1093.524309	676.5
1094.085563	678.25
1094.64676	679.5
1095.207899	685.75
1095.768981	681.25
1096.330005	680.0
1096.890971	688.0
1097.45188	677.75
1098.012732	681.0
1098.573525	679.0
1099.134261	675.5
1099.69494	681.0
1100.255561	676.25
1100.816124	678.5
1101.37663	678.75
1101.937078	683.25
1102.497469	677.25
1103.057802	678.75
1103.618078	678.5
1104.178296	679.25
1104.738456	677.0
1105.298559	678.25
1105.858605	676.0
1106.418593	681.5
1106.978523	676.0
1107.538396	678.0
1108.098212	677.25
1108.657969	675.25
1109.21767	680.0
1109.777313	680.5
1110.336898	680.5
1110.896426	678.25
1111.455896	680.5
1112.015309	678.25
1112.574665	676.5
1113.133963	680.0
1113.693203	673.5
1114.252386	680.0
1114.811512	678.25
1115.37058	680.25
1115.92959	678.75
1116.488544	678.0
1117.047439	677.5
1117.606278	675.5
1118.165058	681.0
1118.723782	676.5
1119.282448	674.75
1119.841056	674.75
1120.399607	679.0
1120.958101	679.0
1121.516537	675.5
1122.074916	680.0
1122.633237	679.5
1123.191501	680.25
1123.749708	674.25
1124.307857	679.5
1124.865949	676.0
1125.423984	675.25
1125.981961	677.75
1126.53988	675.5
1127.097742	681.75
1127.655547	676.0
1128.213295	677.25
1128.770985	678.25
1129.328618	680.0
1129.886193	676.5
1130.443711	678.5
1131.001172	681.25
1131.558575	676.75
1132.115921	682.0
1132.67321	680.0
1133.230441	681.0
1133.787615	676.25
1134.344732	675.75
1134.901792	679.0
1135.458794	676.25
1136.015738	678.25
1136.572626	677.5
1137.129456	678.25
1137.686229	679.25
1138.242944	679.5
1138.799602	674.75
1139.356203	677.5
1139.912747	682.0
1140.469233	680.0
1141.025662	681.5
1141.582034	681.0
1142.138348	677.0
1142.694606	680.5
1143.250806	682.25
1143.806948	688.0
1144.363034	681.25
1144.919062	680.0
1145.475033	681.25
1146.030946	680.75
1146.586803	683.25
1147.142602	686.75
1147.698344	691.5
1148.254029	695.75
1148.809656	686.75
1149.365227	685.0
1149.92074	696.5
1150.476195	731.5
1151.031594	795.0
1151.586936	783.75
1152.14222	708.75
1152.697447	689.0
1153.252617	682.5
1153.807729	680.0
1154.362785	682.25
1154.917783	678.25
1155.472724	681.0
1156.027608	679.25
1156.582435	683.75
1157.137204	678.5
1157.691917	681.0
1158.246572	677.25
1158.80117	680.75
1159.355711	680.75
1159.910195	678.5
1160.464621	678.25
1161.018991	675.0
1161.573303	680.0
1162.127558	681.75
1162.681756	679.5
1163.235897	676.75
1163.789981	678.75
1164.344008	680.5
1164.897978	679.25
1165.45189	676.0
1166.005745	675.25
1166.559544	676.25
1167.113285	678.0
1167.666969	676.5
1168.220596	678.5
1168.774166	674.25
1169.327679	674.75
1169.881135	677.0
1170.434533	682.0
1170.987875	676.25
1171.541159	679.25
1172.094387	677.5
1172.647557	677.5
1173.200671	675.75
1173.753727	680.25
1174.306726	678.0
1174.859668	675.5
1175.412554	681.5
1175.965382	676.75
1176.518153	680.25
1177.070867	673.75
1177.623524	673.25
1178.176124	675.5
1178.728667	677.0
1179.281153	676.0
1179.833582	675.75
1180.385954	675.5
1180.938269	679.25
1181.490527	676.75
1182.042728	680.25
1182.594872	676.75
1183.146959	675.0
1183.698989	675.25
1184.250962	673.75
1184.802878	677.5
1185.354737	673.25
1185.906539	677.25
1186.458285	677.0
1187.009973	678.25
1187.561604	678.75
1188.113178	678.0
1188.664696	675.0
1189.216156	677.0
1189.76756	677.75
1190.318906	678.0
1190.870196	676.5
1191.421429	678.75
1191.972604	676.5
1192.523723	680.75
1193.074785	698.0
1193.62579	677.75
1194.176738	676.5
1194.727629	676.75
1195.278464	676.75
1195.829241	674.75
1196.379962	680.5
1196.930625	678.5
1197.481232	675.25
1198.031782	679.25
1198.582275	677.25
1199.132711	678.25
1199.68309	676.75
1200.233413	676.25
1200.783678	677.75
1201.333887	677.5
1201.884039	678.5
1202.434134	678.75
1202.984172	676.0
1203.534153	673.0
1204.084077	676.75
1204.633945	678.0
1205.183756	673.75
1205.73351	675.25
1206.283207	680.25
1206.832847	676.75
1207.38243	675.75
1207.931957	676.25
1208.481427	679.0
1209.03084	677.75
1209.580196	675.5
1210.129496	682.5
1210.678738	679.5
1211.227924	677.0
1211.777053	679.5
1212.326126	680.0
1212.875141	675.5
1213.4241	677.0
1213.973002	676.5
1214.521847	679.75
1215.070636	678.0
1215.619367	674.25
1216.168042	681.0
1216.71666	676.75
1217.265222	676.0
1217.813726	677.0
1218.362174	680.25
1218.910566	676.75
1219.4589	676.75
1220.007178	677.75
1220.555399	678.5
1221.103563	676.25
1221.651671	676.5
1222.199722	675.25
1222.747716	679.5
1223.295653	675.5
1223.843534	677.0
1224.391358	677.0
1224.939126	672.5
1225.486836	676.25
1226.03449	679.75
1226.582088	682.0
1227.129628	678.25
1227.677112	679.75
1228.22454	675.0
1228.77191	681.75
1229.319224	679.25
1229.866482	675.25
1230.413682	678.25
1230.960826	677.0
1231.507914	678.25
1232.054945	673.0
1232.601919	675.25
1233.148836	676.25
1233.695697	675.5
1234.242501	678.0
1234.789249	678.0
1235.33594	679.25
1235.882574	677.5
1236.429152	675.5
1236.975673	675.0
1237.522138	674.0
1238.068545	676.75
1238.614897	680.25
1239.161191	677.5
1239.70743	678.5
1240.253611	675.0
1240.799736	677.25
1241.345805	678.25
1241.891816	678.75
1242.437772	678.0
1242.98367	672.5
1243.529512	678.25
1244.075298	674.0
1244.621027	674.75
1245.1667	677.75
1245.712315	676.75
1246.257875	678.5
1246.803378	676.25
1247.348824	676.75
1247.894214	679.75
1248.439547	679.25
1248.984824	675.5
1249.530044	676.75
1250.075208	678.75
1250.620315	677.5
1251.165365	678.5
1251.71036	675.0
1252.255297	674.5
1252.800178	675.75
1253.345003	677.5
1253.889771	678.75
1254.434483	675.0
1254.979138	674.0
1255.523737	676.0
1256.068279	676.25
1256.612765	678.25
1257.157194	675.25
1257.701567	675.0
1258.245884	676.25
1258.790143	678.25
1259.334347	679.75
1259.878494	697.5
1260.422585	676.0
1260.966619	675.25
1261.510596	678.25
1262.054518	675.75
1262.598383	678.25
1263.142191	677.0
1263.685943	678.25
1264.229639	680.25
1264.773278	679.0
1265.316861	691.75
1265.860387	693.25
1266.403857	690.0
1266.947271	678.25
1267.490628	678.0
1268.033929	680.75
1268.577173	678.0
1269.120361	677.25
1269.663493	676.75
1270.206568	672.75
1270.749587	675.75
1271.292549	679.25
1271.835456	676.0
1272.378305	681.0
1272.921099	677.75
1273.463836	674.5
1274.006517	676.0
1274.549141	675.75
1275.091709	675.0
1275.634221	672.0
1276.176676	673.5
1276.719075	674.5
1277.261418	673.5
1277.803704	679.0
1278.345935	674.0
1278.888108	676.25
1279.430226	675.25
1279.972287	675.75
1280.514292	677.25
1281.05624	678.0
1281.598133	678.25
1282.139969	678.75
1282.681748	677.5
1283.223472	680.0
1283.765139	679.25
1284.30675	689.5
1284.848304	703.75
1285.389803	783.5
1285.931245	931.75
1286.472631	852.25
1287.01396	721.0
1287.555233	690.0
1288.09645	678.5
1288.637611	678.75
1289.178716	676.75
1289.719764	679.0
1290.260756	673.0
1290.801692	675.25
1291.342572	674.25
1291.883395	674.5
1292.424162	670.25
1292.964873	677.25
1293.505528	675.0
1294.046126	676.5
1294.586669	676.25
1295.127155	678.25
1295.667585	674.0
1296.207958	673.25
1296.748276	673.75
1297.288537	678.25
1297.828743	676.25
1298.368892	675.25
1298.908984	672.5
1299.449021	676.75
1299.989002	676.0
1300.528926	672.0
1301.068794	672.75
1301.608606	675.0
1302.148362	674.25
1302.688062	677.25
1303.227705	675.5
1303.767293	674.25
1304.306824	675.5
1304.846299	674.5
1305.385718	673.5
1305.925081	677.0
1306.464388	673.25
1307.003639	675.75
1307.542833	674.25
1308.081972	676.0
1308.621054	670.75
1309.16008	674.0
1309.699051	676.0
1310.237965	675.0
1310.776823	678.0
1311.315625	674.5
1311.85437	675.5
1312.39306	673.25
1312.931694	675.25
1313.470271	675.5
1314.008793	677.0
1314.547258	672.75
1315.085668	675.5
1315.624021	672.25
1316.162318	675.75
1316.70056	673.75
1317.238745	676.5
1317.776874	677.75
1318.314947	674.0
1318.852964	677.25
1319.390925	676.75
1319.92883	676.0
1320.466679	674.75
1321.004472	675.75
1321.542209	674.75
1322.07989	675.5
1322.617515	672.75
1323.155084	674.25
1323.692597	678.5
1324.230054	675.5
1324.767455	673.0
1325.3048	677.5
1325.842089	675.0
1326.379322	674.25
1326.916499	675.25
1327.45362	677.0
1327.990685	676.25
1328.527694	674.25
1329.064647	676.5
1329.601544	678.25
1330.138386	675.5
1330.675171	675.0
1331.2119	675.0
1331.748574	676.0
1332.285191	674.25
1332.821753	672.25
1333.358258	671.5
1333.894708	675.0
1334.431102	672.75
1334.967439	676.5
1335.503721	676.25
1336.039947	676.5
1336.576117	676.5
1337.112232	675.5
1337.64829	673.75
1338.184292	674.5
1338.720239	674.25
1339.256129	677.25
1339.791964	677.0
1340.327743	680.25
1340.863466	672.75
1341.399133	673.0
1341.934744	675.0
1342.470299	673.5
1343.005799	678.75
1343.541243	678.0
1344.07663	675.75
1344.611962	674.0
1345.147238	676.5
1345.682458	672.75
1346.217623	674.25
1346.752731	678.75
1347.287784	676.75
1347.822781	676.75
1348.357722	677.0
1348.892607	674.0
1349.427437	674.5
1349.96221	675.75
1350.496928	672.25
1351.03159	676.5
1351.566196	672.75
1352.100746	678.0
1352.635241	675.25
1353.16968	672.5
1353.704063	675.0
1354.23839	673.75
1354.772661	672.0
1355.306877	674.5
1355.841037	674.75
1356.375141	674.0
1356.909189	671.25
1357.443182	674.5
1357.977118	677.25
1358.510999	676.5
1359.044825	675.5
1359.578594	676.25
1360.112308	673.5
1360.645966	677.0
1361.179568	674.0
1361.713115	675.5
1362.246606	674.5
1362.780041	679.5
1363.31342	675.75
1363.846744	676.75
1364.380012	674.0
1364.913224	675.0
1365.446381	676.0
1365.979482	675.25
1366.512527	676.75
1367.045516	677.0
1367.57845	675.75
1368.111328	674.5
1368.644151	679.25
1369.176917	673.75
1369.709628	675.75
1370.242284	679.0
1370.774884	678.75
1371.307428	675.75
1371.839916	675.25
1372.372349	678.5
1372.904726	671.25
1373.437047	675.0
1373.969313	676.0
1374.501523	676.25
1375.033678	675.0
1375.565776	676.25
1376.09782	675.25
1376.629807	677.25
1377.161739	676.5
1377.693615	674.5
1378.225436	675.5
1378.757201	676.0
1379.288911	675.25
1379.820565	673.5
1380.352163	675.0
1380.883706	677.5
1381.415193	672.5
1381.946624	674.25
1382.478	676.0
1383.009321	675.25
1383.540585	677.0
1384.071795	676.0
1384.602948	680.0
1385.134046	676.75
1385.665089	677.0
1386.196076	681.5
1386.727007	679.0
1387.257883	683.0
1387.788703	695.75
1388.319468	743.0
1388.850177	980.25
1389.38083	1129.0
1389.911429	801.5
1390.441971	703.25
1390.972458	686.25
1391.50289	681.25
1392.033266	679.75
1392.563586	672.75
1393.093851	674.75
1393.624061	677.75
1394.154214	671.0
1394.684313	674.5
1395.214356	676.0
1395.744343	672.5
1396.274275	676.5
1396.804152	674.25
1397.333973	674.0
1397.863738	675.0
1398.393448	678.25
1398.923103	678.25
1399.452702	673.0
1399.982246	672.75
1400.511734	673.25
1401.041167	673.75
1401.570544	673.0
1402.099866	675.25
1402.629132	671.5
1403.158343	676.75
1403.687498	672.0
1404.216598	675.0
1404.745643	673.5
1405.274632	677.25
1405.803566	675.5
1406.332444	672.25
1406.861267	673.25
1407.390035	675.75
1407.918747	677.0
1408.447404	677.0
1408.976005	678.0
1409.504551	685.0
1410.033041	696.5
1410.561476	714.0
1411.089856	695.0
1411.618181	677.0
1412.14645	678.25
1412.674663	674.0
1413.202821	672.75
1413.730924	677.75
1414.258972	676.75
1414.786964	676.5
1415.314901	684.25
1415.842782	675.75
1416.370608	673.25
1416.898379	676.0
1417.426094	672.75
1417.953754	673.75
1418.481359	673.5
1419.008908	674.5
1419.536402	675.25
1420.063841	674.25
1420.591225	676.75
1421.118553	676.5
1421.645826	674.5
1422.173043	671.5
1422.700205	674.5
1423.227312	677.0
1423.754364	675.75
1424.28136	674.0
1424.808301	678.0
1425.335187	675.75
1425.862017	677.5
1426.388792	674.0
1426.915512	674.25
1427.442177	677.0
1427.968786	672.75
1428.49534	671.25
1429.021839	671.5
1429.548282	674.0
1430.074671	676.75
1430.601004	673.5
1431.127281	672.5
1431.653504	673.25
1432.179671	674.75
1432.705783	674.0
1433.23184	678.25
1433.757842	673.5
1434.283788	672.75
1434.809679	673.75
1435.335515	674.0
1435.861296	674.25
1436.387022	676.75
1436.912692	674.75
1437.438307	671.75
1437.963867	677.25
1438.489372	675.25
1439.014821	669.75
1439.540216	673.0
1440.065555	673.0
1440.590839	675.25
1441.116068	670.25
1441.641241	673.75
1442.16636	671.75
1442.691423	677.5
1443.216431	676.75
1443.741384	672.0
1444.266282	674.25
1444.791125	674.25
1445.315912	672.0
1445.840645	671.5
1446.365322	675.0
1446.889944	674.5
1447.414511	672.0
1447.939023	673.25
1448.463479	669.0
1448.987881	672.5
1449.512228	672.5
1450.036519	675.75
1450.560755	675.5
1451.084936	670.25
1451.609062	671.0
1452.133133	674.75
1452.657149	673.75
1453.18111	677.0
1453.705016	675.0
1454.228866	673.25
1454.752662	673.25
1455.276402	672.75
1455.800088	675.75
1456.323718	673.25
1456.847293	671.0
1457.370813	672.5
1457.894278	674.25
1458.417689	671.75
1458.941044	671.75
1459.464344	673.25
1459.987588	676.5
1460.510778	673.5
1461.033913	676.5
1461.556993	674.5
1462.080018	671.0
1462.602987	677.25
1463.125902	689.0
1463.648762	675.75
1464.171567	670.25
1464.694316	675.5
1465.217011	675.25
1465.739651	672.5
1466.262235	672.0
1466.784765	672.75
1467.30724	674.25
1467.829659	674.25
1468.352024	672.75
1468.874334	673.5
1469.396589	672.25
1469.918788	674.5
1470.440933	676.0
1470.963023	672.5
1471.485058	673.0
1472.007038	673.0
1472.528963	672.75
1473.050833	669.75
1473.572648	673.75
1474.094408	673.5
1474.616113	674.25
1475.137763	672.75
1475.659358	673.5
1476.180899	672.5
1476.702384	675.0
1477.223815	673.75
1477.74519	675.25
1478.266511	673.75
1478.787777	673.25
1479.308988	673.5
1479.830144	674.0
1480.351245	674.75
1480.872291	672.25
1481.393282	671.25
1481.914218	670.0
1482.4351	673.25
1482.955926	671.0
1483.476698	672.0
1483.997415	672.75
1484.518077	673.25
1485.038684	672.25
1485.559236	675.5
1486.079734	674.75
1486.600176	671.25
1487.120564	675.75
1487.640896	671.5
1488.161174	672.0
1488.681398	674.0
1489.201566	673.75
1489.721679	673.75
1490.241738	671.0
1490.761742	672.0
1491.281691	673.0
1491.801585	671.0
1492.321424	672.25
1492.841208	676.5
1493.360938	674.75
1493.880613	675.5
1494.400233	672.25
1494.919798	675.75
1495.439309	672.75
1495.958764	673.5
1496.478165	673.5
1496.997511	678.25
1497.516803	673.0
1498.036039	676.25
1498.555221	673.75
1499.074348	671.0
1499.59342	681.0
1500.112438	672.25
1500.6314	675.75
1501.150308	673.5
1501.669161	674.75
1502.18796	672.5
1502.706704	671.5
1503.225393	673.25
1503.744027	673.5
1504.262606	673.5
1504.781131	672.75
1505.299601	672.5
1505.818016	676.0
1506.336377	671.0
1506.854683	672.0
1507.372934	669.5
1507.89113	671.5
1508.409272	670.25
1508.927359	672.5
1509.445391	671.75
1509.963369	672.5
1510.481292	677.75
1510.99916	672.25
1511.516974	672.25
1512.034733	671.25
1512.552437	671.75
1513.070086	670.25
1513.587681	674.5
1514.105221	670.75
1514.622707	673.75
1515.140138	673.0
1515.657514	673.5
1516.174836	670.75
1516.692102	670.25
1517.209315	674.25
1517.726472	672.5
1518.243575	674.0
1518.760624	670.0
1519.277617	672.75
1519.794557	670.0
1520.311441	668.5
1520.828271	675.0
1521.345046	671.25
1521.861767	670.0
1522.378433	670.0
1522.895044	671.0
1523.411601	671.0
1523.928103	673.25
1524.444551	673.25
1524.960944	673.25
1525.477282	674.0
1525.993566	678.75
1526.509795	674.5
1527.02597	671.25
1527.54209	671.5
1528.058156	670.0
1528.574167	674.0
1529.090123	673.0
1529.606025	669.5
1530.121872	673.5
1530.637665	672.0
1531.153403	671.25
1531.669087	674.5
1532.184716	673.0
1532.700291	670.25
1533.215811	672.0
1533.731276	671.25
1534.246687	672.5
1534.762044	671.75
1535.277346	670.5
1535.792593	675.0
1536.307786	671.0
1536.822924	672.5
1537.338008	673.25
1537.853038	669.5
1538.368013	672.75
1538.882933	672.5
1539.397799	671.5
1539.91261	674.75
1540.427367	672.25
1540.94207	674.0
1541.456718	671.75
1541.971311	671.0
1542.48585	669.75
1543.000335	673.25
1543.514765	671.75
1544.029141	671.0
1544.543462	672.0
1545.057729	675.5
1545.571941	674.25
1546.086099	671.5
1546.600202	670.5
1547.114251	672.75
1547.628246	670.75
1548.142186	670.5
1548.656072	672.75
1549.169903	671.25
1549.68368	673.0
1550.197402	672.0
1550.71107	673.25
1551.224684	666.5
1551.738243	671.5
1552.251748	673.25
1552.765198	669.75
1553.278594	673.25
1553.791936	669.25
1554.305223	669.75
1554.818456	672.25
1555.331634	672.75
1555.844758	672.25
1556.357828	671.75
1556.870843	674.0
1557.383804	672.5
1557.896711	668.75
1558.409563	672.0
1558.922361	672.0
1559.435105	669.25
1559.947794	674.0
1560.460429	673.0
1560.973009	672.75
1561.485535	671.25
1561.998007	673.25
1562.510425	673.75
1563.022788	672.75
1563.535097	671.75
1564.047351	673.0
1564.559551	670.0
1565.071697	672.0
1565.583789	676.5
1566.095826	673.25
1566.607809	671.0
1567.119738	672.5
1567.631612	672.25
1568.655198	677.0
1569.16691	672.5
1569.678567	674.25
1570.19017	672.5
1570.701719	672.25
1571.213213	673.25
1571.724653	670.5
1572.236039	673.5
1572.747371	673.0
1573.258648	673.0
1573.769871	674.25
1574.28104	670.5
1574.792155	669.75
1575.303215	672.75
1575.814221	673.5
1576.325173	671.5
1576.836071	669.0
1577.346914	672.25
1577.857703	671.25
1578.368438	674.25
1578.879119	670.75
1579.389746	671.75
1579.900318	671.25
1580.410836	669.0
1580.9213	669.75
1581.43171	673.25
1581.942065	674.75
1582.452366	671.75
1582.962614	671.25
1583.472807	671.0
1583.982945	670.5
1584.49303	673.25
1585.00306	668.5
1585.513037	675.25
1586.022959	675.0
1586.532827	671.75
1587.04264	669.0
1587.5524	669.0
1588.062105	671.0
1588.571757	673.25
1589.081354	674.0
1589.590897	673.25
1590.100386	671.5
1590.60982	671.75
1591.119201	666.5
1591.628527	673.0
1592.1378	668.75
