1042.208489	701.75
1042.775002	706.0
1043.341458	698.75
1043.907855	696.5
1044.474195	702.75
1045.040476	702.0
1045.6067	694.75
1046.172866	698.75
1046.738974	693.75
1047.305024	697.5
1047.871015	698.75
1048.436949	690.75
1049.002825	691.5
1049.568644	689.25
1050.134404	691.0
1050.700106	690.5
1051.26575	689.0
1051.831337	691.0
1052.396865	688.25
1052.962336	690.5
1053.527749	688.25
1054.093103	686.75
1054.6584	687.75
1055.223639	691.25
1055.788821	687.25
1056.353944	683.25
1056.919009	686.0
1057.484017	681.5
1058.048967	683.0
1058.613858	683.75
1059.178692	684.75
1059.743468	686.0
1060.308187	688.0
1060.872847	684.75
1061.43745	681.5
1062.001994	685.25
1062.566481	681.5
1063.13091	683.25
1063.695281	686.75
1064.259595	684.0
1064.82385	682.75
1065.388048	684.75
1065.952188	688.0
1066.51627	682.25
1067.080295	681.0
1067.644261	681.75
1068.20817	681.25
1068.772021	682.25
1069.335814	682.5
1069.899549	686.5
1070.463227	685.5
1071.026847	679.75
1071.590409	680.5
1072.153913	682.25
1072.717359	683.75
1073.280748	683.75
1073.844079	683.0
1074.407352	682.0
1074.970568	678.5
1075.533726	683.25
1076.096826	684.0
1076.659868	681.5
1077.222853	683.25
1077.785779	678.75
1078.348648	685.25
1078.91146	684.0
1079.474214	681.5
1080.036909	683.25
1080.599548	681.5
1081.162128	683.25
1081.724651	681.75
1082.287116	684.5
1082.849524	678.5
1083.411873	684.0
1083.974165	679.0
1084.5364	680.5
1085.098577	682.0
1085.660696	682.0
1086.222757	682.75
1086.784761	680.25
1087.346707	681.25
1087.908595	680.5
1088.470426	682.75
1089.032199	680.25
1089.593914	678.25
1090.155572	680.0
1090.717172	683.25
1091.278715	681.5
1091.8402	680.5
1092.401627	682.25
1092.962997	680.75
1093.524309	680.75
1094.085563	680.5
1094.64676	681.75
1095.207899	687.25
1095.768981	682.25
1096.330005	678.0
1096.890971	687.75
1097.45188	682.5
1098.012732	684.5
1098.573525	680.75
1099.134261	682.0
1099.69494	678.0
1100.255561	682.25
1100.816124	679.0
1101.37663	679.75
1101.937078	683.25
1102.497469	683.75
1103.057802	682.5
1103.618078	684.25
1104.178296	679.5
1104.738456	682.75
1105.298559	682.25
1105.858605	684.0
1106.418593	681.5
1106.978523	678.25
1107.538396	678.25
1108.098212	681.0
1108.657969	681.75
1109.21767	681.25
1109.777313	676.25
1110.336898	682.5
1110.896426	681.0
1111.455896	684.25
1112.015309	677.5
1112.574665	679.0
1113.133963	681.75
1113.693203	680.25
1114.252386	678.5
1114.811512	677.75
1115.37058	679.5
1115.92959	681.5
1116.488544	679.25
1117.047439	680.25
1117.606278	680.5
1118.165058	682.75
1118.723782	679.5
1119.282448	684.0
1119.841056	679.75
1120.399607	675.25
1120.958101	682.25
1121.516537	681.0
1122.074916	679.25
1122.633237	681.5
1123.191501	680.75
1123.749708	681.25
1124.307857	680.75
1124.865949	680.5
1125.423984	679.75
1125.981961	679.5
1126.53988	678.5
1127.097742	677.0
1127.655547	675.5
1128.213295	678.25
1128.770985	677.0
1129.328618	679.25
1129.886193	680.25
1130.443711	682.0
1131.001172	679.5
1131.558575	679.75
1132.115921	682.0
1132.67321	679.5
1133.230441	679.5
1133.787615	681.5
1134.344732	678.75
1134.901792	682.75
1135.458794	680.75
1136.015738	681.5
1136.572626	681.25
1137.129456	682.0
1137.686229	680.75
1138.242944	682.0
1138.799602	680.75
1139.356203	680.5
1139.912747	678.5
1140.469233	681.25
1141.025662	679.5
1141.582034	678.5
1142.138348	681.5
1142.694606	683.5
1143.250806	686.0
1143.806948	686.0
1144.363034	686.0
1144.919062	685.0
1145.475033	681.75
1146.030946	687.0
1146.586803	684.0
1147.142602	685.25
1147.698344	691.5
1148.254029	689.75
1148.809656	682.75
1149.365227	685.5
1149.92074	692.25
1150.476195	718.5
1151.031594	759.5
1151.586936	725.75
1152.14222	693.75
1152.697447	683.75
1153.252617	680.25
1153.807729	681.75
1154.362785	682.75
1154.917783	681.25
1155.472724	681.75
1156.027608	684.25
1156.582435	683.25
1157.137204	684.0
1157.691917	681.25
1158.246572	682.75
1158.80117	682.25
1159.355711	683.0
1159.910195	680.5
1160.464621	682.25
1161.018991	682.0
1161.573303	683.75
1162.127558	682.75
1162.681756	682.25
1163.235897	677.5
1163.789981	677.5
1164.344008	679.5
1164.897978	682.75
1165.45189	681.75
1166.005745	679.5
1166.559544	685.5
1167.113285	678.5
1167.666969	679.25
1168.220596	682.75
1168.774166	678.5
1169.327679	682.5
1169.881135	679.0
1170.434533	680.25
1170.987875	681.0
1171.541159	681.0
1172.094387	680.25
1172.647557	682.25
1173.200671	680.0
1173.753727	679.25
1174.306726	679.75
1174.859668	681.5
1175.412554	679.5
1175.965382	680.0
1176.518153	678.5
1177.070867	684.25
1177.623524	681.0
1178.176124	680.75
1178.728667	680.5
1179.281153	681.25
1179.833582	679.25
1180.385954	680.0
1180.938269	679.0
1181.490527	676.5
1182.042728	681.0
1182.594872	680.0
1183.146959	680.25
1183.698989	678.5
1184.250962	681.5
1184.802878	684.75
1185.354737	683.5
1185.906539	679.0
1186.458285	678.25
1187.009973	680.0
1187.561604	682.0
1188.113178	680.25
1188.664696	678.5
1189.216156	683.75
1189.76756	677.5
1190.318906	681.0
1190.870196	683.0
1191.421429	684.25
1191.972604	682.75
1192.523723	681.25
1193.074785	697.5
1193.62579	680.0
1194.176738	681.75
1194.727629	680.75
1195.278464	682.0
1195.829241	677.75
1196.379962	684.5
1196.930625	679.0
1197.481232	679.75
1198.031782	681.0
1198.582275	677.0
1199.132711	679.5
1199.68309	677.5
1200.233413	680.5
1200.783678	680.5
1201.333887	682.5
1201.884039	685.25
1202.434134	681.5
1202.984172	682.75
1203.534153	679.5
1204.084077	678.0
1204.633945	679.25
1205.183756	678.5
1205.73351	681.0
1206.283207	679.75
1206.832847	680.0
1207.38243	681.75
1207.931957	678.5
1208.481427	685.5
1209.03084	681.25
1209.580196	679.5
1210.129496	681.75
1210.678738	686.75
1211.227924	680.75
1211.777053	679.75
1212.326126	681.0
1212.875141	680.5
1213.4241	679.75
1213.973002	679.25
1214.521847	680.0
1215.070636	681.25
1215.619367	680.75
1216.168042	682.75
1216.71666	678.25
1217.265222	678.25
1217.813726	680.5
1218.362174	682.0
1218.910566	681.0
1219.4589	676.75
1220.007178	681.0
1220.555399	679.75
1221.103563	679.75
1221.651671	683.5
1222.199722	680.5
1222.747716	684.25
1223.295653	682.5
1223.843534	683.5
1224.391358	682.0
1224.939126	679.25
1225.486836	683.5
1226.03449	680.75
1226.582088	683.75
1227.129628	683.25
1227.677112	681.5
1228.22454	681.0
1228.77191	679.75
1229.319224	683.25
1229.866482	680.5
1230.413682	679.75
1230.960826	681.75
1231.507914	682.25
1232.054945	681.75
1232.601919	685.5
1233.148836	678.5
1233.695697	677.5
1234.242501	678.0
1234.789249	683.25
1235.33594	677.5
1235.882574	678.75
1236.429152	680.0
1236.975673	683.5
1237.522138	682.25
1238.068545	676.75
1238.614897	681.25
1239.161191	680.0
1239.70743	677.0
1240.253611	683.25
1240.799736	682.0
1241.345805	676.25
1241.891816	681.0
1242.437772	678.75
1242.98367	680.0
1243.529512	680.25
1244.075298	679.25
1244.621027	683.5
1245.1667	680.75
1245.712315	679.75
1246.257875	680.25
1246.803378	679.25
1247.348824	679.0
1247.894214	684.0
1248.439547	680.75
1248.984824	679.0
1249.530044	681.25
1250.075208	681.25
1250.620315	680.75
1251.165365	679.75
1251.71036	678.5
1252.255297	680.75
1252.800178	678.75
1253.345003	681.5
1253.889771	680.0
1254.434483	678.75
1254.979138	681.25
1255.523737	680.5
1256.068279	683.25
1256.612765	678.75
1257.157194	677.75
1257.701567	685.0
1258.245884	681.75
1258.790143	681.75
1259.334347	678.75
1260.422585	680.75
1260.966619	681.5
1261.510596	679.5
1262.054518	678.25
1262.598383	679.75
1263.142191	684.0
1263.685943	684.0
1264.229639	686.75
1264.773278	692.75
1265.316861	701.0
1265.860387	701.5
1266.403857	690.25
1266.947271	685.25
1267.490628	681.25
1268.033929	682.25
1268.577173	678.5
1269.120361	681.5
1269.663493	682.0
1270.206568	677.25
1270.749587	678.25
1271.292549	680.25
1271.835456	679.0
1272.378305	678.75
1272.921099	675.75
1273.463836	681.5
1274.006517	681.75
1274.549141	682.0
1275.091709	678.0
1275.634221	677.0
1276.176676	682.0
1276.719075	679.25
1277.261418	682.25
1277.803704	678.25
1278.345935	682.75
1278.888108	682.5
1279.430226	680.75
1279.972287	679.75
1280.514292	681.5
1281.05624	681.25
1281.598133	684.0
1282.139969	679.75
1282.681748	681.5
1283.223472	692.0
1283.765139	694.5
1284.30675	710.5
1284.848304	768.75
1285.389803	929.0
1285.931245	1026.5
1286.472631	827.5
1287.01396	724.0
1287.555233	696.5
1288.09645	690.5
1288.637611	689.75
1289.178716	681.5
1289.719764	683.0
1290.260756	682.75
1290.801692	683.5
1291.342572	681.0
1291.883395	678.75
1292.424162	679.25
1292.964873	678.75
1293.505528	678.25
1294.046126	678.0
1294.586669	679.0
1295.127155	678.75
1295.667585	678.75
1296.207958	679.0
1296.748276	680.0
1297.288537	678.0
1297.828743	682.0
1298.368892	679.75
1298.908984	677.0
1299.449021	679.75
1299.989002	679.5
1300.528926	676.75
1301.068794	681.0
1301.608606	681.75
1302.148362	678.75
1302.688062	681.25
1303.227705	680.0
1303.767293	676.5
1304.306824	678.75
1304.846299	677.25
1305.385718	678.5
1305.925081	678.25
1306.464388	680.5
1307.003639	679.75
1307.542833	678.25
1308.081972	677.75
1308.621054	681.0
1309.16008	679.5
1309.699051	681.5
1310.237965	678.75
1310.776823	679.75
1311.315625	678.75
1311.85437	681.0
1312.39306	680.25
1312.931694	674.25
1313.470271	680.75
1314.008793	682.0
1314.547258	677.25
1315.085668	677.25
1315.624021	679.5
1316.162318	680.75
1316.70056	679.25
1317.238745	677.75
1317.776874	675.25
1318.314947	682.25
1318.852964	679.5
1319.390925	678.75
1319.92883	680.0
1320.466679	676.75
1321.004472	677.25
1321.542209	679.0
1322.07989	681.25
1322.617515	681.0
1323.155084	680.0
1323.692597	680.5
1324.230054	679.5
1324.767455	675.25
1325.3048	676.75
1325.842089	678.75
1326.379322	675.75
1326.916499	679.5
1327.45362	675.75
1327.990685	677.0
1328.527694	676.75
1329.064647	678.0
1329.601544	677.5
1330.138386	678.75
1330.675171	678.5
1331.2119	681.25
1331.748574	676.75
1332.285191	681.0
1332.821753	680.5
1333.358258	678.75
1333.894708	679.25
1334.431102	678.75
1334.967439	678.5
1335.503721	679.75
1336.039947	682.75
1336.576117	679.75
1337.112232	680.5
1337.64829	677.5
1338.184292	677.75
1338.720239	676.25
1339.256129	679.25
1339.791964	674.5
1340.327743	678.5
1340.863466	676.25
1341.399133	678.5
1341.934744	678.5
1342.470299	679.25
1343.005799	682.0
1343.541243	681.5
1344.07663	680.0
1344.611962	679.25
1345.147238	672.5
1345.682458	679.75
1346.217623	675.5
1346.752731	675.5
1347.287784	679.25
1347.822781	679.5
1348.357722	681.0
1348.892607	679.75
1349.427437	673.5
1349.96221	680.25
1350.496928	677.5
1351.03159	678.75
1351.566196	681.25
1352.100746	678.0
1352.635241	675.5
1353.16968	673.75
1353.704063	679.75
1354.23839	677.0
1354.772661	676.75
1355.306877	679.25
1355.841037	678.0
1356.375141	677.5
1356.909189	680.5
1357.443182	678.5
1357.977118	678.0
1358.510999	679.5
1359.044825	677.25
1359.578594	681.0
1360.112308	681.5
1360.645966	682.0
1361.179568	678.75
1361.713115	681.0
1362.246606	680.0
1362.780041	677.0
1363.31342	678.25
1363.846744	678.75
1364.380012	681.25
1364.913224	675.25
1365.446381	677.75
1365.979482	680.0
1366.512527	678.75
1367.045516	680.5
1367.57845	680.0
1368.111328	681.0
1368.644151	677.75
1369.176917	678.5
1369.709628	678.75
1370.242284	680.75
1370.774884	689.75
1371.307428	685.25
1371.839916	681.75
1372.372349	677.75
1372.904726	680.25
1373.437047	678.0
1373.969313	678.75
1374.501523	679.0
1375.033678	679.25
1375.565776	680.25
1376.09782	683.5
1376.629807	682.0
1377.161739	681.0
1377.693615	678.75
1378.225436	680.75
1378.757201	678.5
1379.288911	679.75
1379.820565	679.75
1380.352163	680.5
1380.883706	680.0
1381.415193	681.0
1381.946624	681.25
1382.478	683.25
1383.009321	681.5
1383.540585	680.5
1384.071795	683.0
1384.602948	681.5
1385.134046	682.5
1385.665089	684.75
1386.196076	687.5
1386.727007	691.75
1387.257883	699.25
1387.788703	727.5
1388.319468	855.25
1388.850177	1245.75
1389.38083	1194.75
1389.911429	807.25
1390.441971	713.5
1390.972458	698.0
1391.50289	687.75
1392.033266	684.75
1392.563586	684.75
1393.093851	679.5
1393.624061	682.5
1394.154214	681.0
1394.684313	681.75
1395.214356	680.0
1395.744343	680.75
1396.274275	682.75
1396.804152	677.5
1397.333973	679.5
1397.863738	678.75
1398.393448	678.25
1398.923103	681.5
1399.452702	675.5
1399.982246	677.75
1400.511734	680.5
1401.041167	679.75
1401.570544	682.5
1402.099866	681.25
1402.629132	677.25
1403.158343	679.75
1403.687498	679.25
1404.216598	677.0
1404.745643	679.25
1405.274632	676.25
1405.803566	678.5
1406.332444	680.5
1406.861267	676.75
1407.390035	681.25
1407.918747	683.75
1408.447404	679.75
1408.976005	684.0
1409.504551	696.25
1410.033041	710.75
1410.561476	725.0
1411.089856	706.75
1411.618181	690.75
1412.14645	681.75
1412.674663	678.0
1413.202821	679.0
1413.730924	675.5
1414.258972	681.5
1414.786964	680.5
1415.314901	690.25
1415.842782	683.0
1416.370608	675.5
1416.898379	676.25
1417.426094	680.0
1417.953754	679.5
1418.481359	678.25
1419.008908	678.0
1419.536402	681.0
1420.063841	676.5
1420.591225	675.5
1421.118553	676.75
1421.645826	679.5
1422.173043	680.0
1422.700205	675.75
1423.227312	676.25
1423.754364	678.0
1424.28136	679.75
1424.808301	677.75
1425.335187	677.5
1425.862017	676.0
1426.388792	679.5
1426.915512	677.75
1427.442177	681.5
1427.968786	677.0
1428.49534	676.5
1429.021839	679.5
1429.548282	678.0
1430.074671	678.75
1430.601004	678.0
1431.127281	677.75
1431.653504	676.25
1432.179671	679.75
1432.705783	674.25
1433.23184	671.75
1433.757842	677.25
1434.283788	678.0
1434.809679	677.5
1435.335515	676.75
1435.861296	675.0
1436.387022	678.5
1436.912692	676.0
1437.438307	676.75
1437.963867	676.5
1438.489372	676.25
1439.014821	675.75
1439.540216	678.75
1440.065555	678.75
1440.590839	676.5
1441.116068	678.75
1441.641241	675.75
1442.16636	677.0
1442.691423	676.5
1443.216431	680.75
1443.741384	674.0
1444.266282	677.0
1444.791125	676.75
1445.315912	678.25
1445.840645	674.75
1446.365322	675.25
1446.889944	677.0
1447.414511	674.5
1447.939023	672.5
1448.463479	674.75
1448.987881	679.0
1449.512228	675.25
1450.036519	675.0
1450.560755	677.25
1451.084936	674.25
1451.609062	678.25
1452.133133	677.0
1452.657149	674.75
1453.18111	674.75
1453.705016	675.75
1454.228866	676.0
1454.752662	677.25
1455.276402	680.0
1455.800088	679.25
1456.323718	674.5
1456.847293	675.0
1457.370813	674.25
1457.894278	678.25
1458.417689	677.0
1458.941044	679.25
1459.464344	678.0
1459.987588	676.25
1460.510778	676.5
1461.033913	677.0
1461.556993	677.25
1462.080018	676.75
1462.602987	678.5
1463.125902	691.75
1463.648762	677.0
1464.171567	674.0
1464.694316	677.5
1465.217011	672.25
1465.739651	676.5
1466.262235	678.25
1466.784765	675.5
1467.30724	677.5
1467.829659	673.75
1468.352024	677.0
1468.874334	679.5
1469.396589	679.0
1469.918788	675.5
1470.440933	677.5
1470.963023	677.25
1471.485058	674.0
1472.007038	671.5
1472.528963	677.5
1473.050833	678.0
1473.572648	679.75
1474.094408	674.25
1474.616113	676.75
1475.137763	676.25
1475.659358	675.25
1476.180899	674.5
1476.702384	674.0
1477.223815	679.0
1477.74519	674.5
1478.266511	676.25
1478.787777	675.75
1479.308988	674.25
1479.830144	675.25
1480.351245	674.5
1480.872291	675.0
1481.393282	678.0
1481.914218	677.0
1482.4351	677.25
1482.955926	676.0
1483.476698	677.5
1483.997415	673.0
1484.518077	675.0
1485.038684	673.25
1485.559236	677.5
1486.079734	676.0
1486.600176	679.25
1487.120564	675.75
1487.640896	675.25
1488.161174	674.25
1488.681398	680.5
1489.201566	674.75
1489.721679	676.75
1490.241738	674.5
1490.761742	675.0
1491.281691	676.0
1491.801585	677.75
1492.321424	674.25
1492.841208	674.5
1493.360938	676.25
1493.880613	677.5
1494.400233	675.25
1494.919798	674.25
1495.439309	672.0
1495.958764	674.25
1496.478165	675.75
1496.997511	674.0
1497.516803	674.25
1498.036039	674.0
1498.555221	677.0
1499.074348	673.75
1499.59342	683.75
1500.112438	673.25
1500.6314	673.25
1501.150308	675.0
1501.669161	671.75
1502.18796	679.25
1502.706704	677.25
1503.225393	673.5
1503.744027	677.5
1504.262606	676.25
1504.781131	674.5
1505.299601	676.0
1505.818016	677.25
1506.336377	675.25
1506.854683	674.75
1507.372934	676.75
1507.89113	675.75
1508.409272	675.75
1508.927359	675.75
1509.445391	676.75
1509.963369	673.5
1510.481292	684.0
1510.99916	675.75
1511.516974	672.5
1512.034733	676.75
1512.552437	675.25
1513.070086	676.75
1513.587681	673.5
1514.105221	674.5
1514.622707	673.5
1515.140138	674.75
1515.657514	673.5
1516.174836	674.0
1516.692102	675.0
1517.209315	672.25
1517.726472	676.0
1518.243575	675.5
1518.760624	674.75
1519.277617	673.75
1519.794557	674.25
1520.311441	672.25
1520.828271	673.75
1521.345046	673.0
1521.861767	672.5
1522.378433	674.0
1522.895044	674.25
1523.411601	675.5
1523.928103	677.0
1524.444551	675.0
1524.960944	676.75
1525.477282	676.75
1525.993566	685.0
1526.509795	681.75
1527.02597	678.5
1527.54209	672.0
1528.058156	675.0
1528.574167	672.5
1529.090123	673.5
1529.606025	676.25
1530.121872	676.0
1530.637665	673.75
1531.153403	676.0
1531.669087	672.75
1532.184716	675.5
1532.700291	674.0
1533.215811	672.0
1533.731276	677.75
1534.246687	676.25
1534.762044	675.5
1535.277346	676.75
1535.792593	672.75
1536.307786	675.75
1536.822924	673.75
1537.338008	673.25
1537.853038	675.0
1538.368013	674.0
1538.882933	676.75
1539.397799	676.5
1539.91261	674.25
1540.427367	671.25
1540.94207	675.25
1541.456718	675.0
1541.971311	673.5
1542.48585	673.25
1543.000335	673.25
1543.514765	675.0
1544.029141	676.0
1544.543462	674.75
1545.057729	669.75
1545.571941	673.5
1546.086099	677.75
1546.600202	676.25
1547.114251	674.75
1547.628246	676.25
1548.142186	675.5
1548.656072	672.25
1549.169903	674.75
1549.68368	672.75
1550.197402	672.0
1550.71107	679.25
1551.224684	673.75
1551.738243	674.25
1552.251748	675.25
1552.765198	673.75
1553.278594	673.25
1553.791936	672.5
1554.305223	675.75
1554.818456	672.25
1555.331634	671.0
1555.844758	674.0
1556.357828	676.25
1556.870843	670.75
1557.383804	677.25
1557.896711	672.75
1558.409563	675.25
1558.922361	672.75
1559.435105	675.25
1559.947794	676.25
1560.460429	676.5
1560.973009	677.0
1561.485535	674.5
1561.998007	673.25
1562.510425	671.25
1563.022788	677.5
1563.535097	674.75
1564.047351	676.0
1564.559551	674.5
1565.071697	678.25
1565.583789	677.25
1566.095826	675.5
1566.607809	674.0
1567.119738	673.5
1567.631612	675.0
1568.143432	673.75
1568.655198	675.5
1569.16691	676.5
1569.678567	678.0
1570.19017	674.0
1570.701719	671.5
1571.213213	677.0
1571.724653	672.5
1572.236039	676.75
1572.747371	674.0
1573.258648	674.5
1573.769871	673.5
1574.28104	671.75
1574.792155	675.0
1575.303215	675.75
1575.814221	674.75
1576.325173	677.25
1576.836071	672.0
1577.346914	675.75
1577.857703	676.25
1578.368438	675.75
1578.879119	674.75
1579.389746	673.0
1579.900318	670.75
1580.410836	675.25
1580.9213	676.0
1581.43171	674.25
1581.942065	673.75
1582.452366	674.75
1582.962614	670.25
1583.472807	675.0
1583.982945	675.25
1584.49303	673.5
1585.00306	674.0
1585.513037	672.25
1586.022959	673.5
1586.532827	674.75
1587.04264	672.25
1587.5524	675.5
1588.062105	672.0
1588.571757	673.25
1589.081354	673.0
1589.590897	675.75
1590.100386	671.75
1590.60982	676.0
1591.119201	676.0
1591.628527	670.5
1592.1378	670.25
