1042.208489	704.0
1042.775002	705.25
1043.341458	703.0
1043.907855	700.0
1044.474195	700.5
1045.040476	698.25
1045.6067	692.75
1046.172866	693.0
1046.738974	692.75
1047.305024	692.75
1047.871015	693.5
1048.436949	688.5
1049.002825	690.25
1049.568644	689.25
1050.134404	687.5
1050.700106	689.5
1051.26575	686.75
1051.831337	688.5
1052.396865	686.75
1052.962336	684.5
1053.527749	683.0
1054.093103	682.5
1054.6584	682.5
1055.223639	686.0
1055.788821	685.5
1056.353944	682.0
1056.919009	687.0
1057.484017	681.25
1058.048967	685.0
1058.613858	686.0
1059.178692	683.0
1059.743468	682.25
1060.308187	683.5
1060.872847	680.0
1061.43745	682.75
1062.001994	687.25
1062.566481	685.0
1063.13091	682.5
1063.695281	679.75
1064.259595	679.5
1064.82385	681.5
1065.388048	683.75
1065.952188	683.5
1066.51627	682.25
1067.080295	683.0
1067.644261	680.5
1068.20817	681.75
1068.772021	677.75
1069.335814	683.75
1069.899549	689.0
1070.463227	678.25
1071.026847	681.5
1071.590409	680.5
1072.153913	681.0
1072.717359	680.75
1073.280748	685.25
1073.844079	682.5
1074.407352	677.25
1074.970568	679.0
1075.533726	679.5
1076.096826	684.5
1076.659868	681.25
1077.222853	679.5
1077.785779	680.75
1078.348648	678.75
1078.91146	676.75
1079.474214	680.0
1080.036909	682.75
1080.599548	679.0
1081.162128	685.0
1081.724651	684.75
1082.287116	682.0
1082.849524	683.0
1083.411873	682.75
1083.974165	677.75
1084.5364	677.25
1085.098577	679.75
1085.660696	680.0
1086.222757	682.75
1086.784761	680.5
1087.346707	679.25
1087.908595	680.0
1088.470426	680.75
1089.032199	679.25
1089.593914	677.25
1090.155572	683.5
1090.717172	679.75
1091.278715	680.0
1091.8402	677.25
1092.401627	684.5
1092.962997	681.25
1093.524309	680.5
1094.085563	680.75
1094.64676	677.0
1095.207899	685.75
1095.768981	677.75
1096.330005	679.75
1096.890971	685.5
1097.45188	677.75
1098.012732	675.5
1098.573525	676.75
1099.134261	679.75
1099.69494	678.75
1100.255561	684.0
1100.816124	676.0
1101.37663	676.5
1101.937078	679.25
1102.497469	679.0
1103.057802	681.25
1103.618078	680.0
1104.178296	682.5
1104.738456	678.25
1105.298559	679.5
1105.858605	680.0
1106.418593	680.0
1106.978523	680.5
1107.538396	678.25
1108.098212	678.25
1108.657969	677.75
1109.21767	681.5
1109.777313	681.0
1110.336898	678.75
1110.896426	681.5
1111.455896	682.5
1112.015309	676.75
1112.574665	676.5
1113.133963	681.0
1113.693203	679.75
1114.252386	678.25
1114.811512	679.25
1115.37058	681.75
1115.92959	678.0
1116.488544	679.25
1117.047439	682.0
1117.606278	680.75
1118.165058	677.75
1118.723782	680.0
1119.282448	678.0
1119.841056	683.0
1120.399607	680.75
1120.958101	680.75
1121.516537	681.75
1122.074916	681.0
1122.633237	683.5
1123.191501	680.0
1123.749708	681.25
1124.307857	677.25
1124.865949	677.75
1125.423984	682.5
1125.981961	680.0
1126.53988	683.5
1127.097742	679.25
1127.655547	683.25
1128.213295	681.25
1128.770985	679.75
1129.328618	680.75
1129.886193	681.0
1130.443711	683.0
1131.001172	680.25
1131.558575	678.5
1132.115921	680.75
1132.67321	677.5
1133.230441	682.25
1133.787615	681.5
1134.344732	678.75
1134.901792	682.5
1135.458794	682.0
1136.015738	678.25
1136.572626	680.75
1137.129456	684.0
1137.686229	682.0
1138.242944	680.5
1138.799602	678.5
1139.356203	682.0
1139.912747	682.0
1140.469233	682.25
1141.025662	684.75
1141.582034	682.0
1142.138348	682.25
1142.694606	690.75
1143.250806	699.5
1143.806948	706.0
1144.363034	698.75
1144.919062	693.5
1145.475033	687.0
1146.030946	686.0
1146.586803	687.0
1147.142602	707.0
1147.698344	727.5
1148.254029	726.25
1148.809656	704.25
1149.365227	704.25
1149.92074	740.0
1150.476195	882.0
1151.031594	1093.5
1151.586936	936.25
1152.14222	748.5
1152.697447	702.25
1153.252617	687.0
1153.807729	684.25
1154.362785	686.25
1154.917783	685.5
1155.472724	680.5
1156.027608	680.25
1156.582435	684.5
1157.137204	683.75
1157.691917	681.75
1158.246572	681.25
1158.80117	683.0
1159.355711	681.0
1159.910195	687.0
1160.464621	683.75
1161.018991	681.5
1161.573303	681.75
1162.127558	681.0
1162.681756	680.5
1163.235897	681.25
1163.789981	680.5
1164.344008	679.0
1164.897978	678.75
1165.45189	682.5
1166.005745	679.0
1166.559544	680.0
1167.113285	679.5
1167.666969	679.75
1168.220596	678.0
1168.774166	682.0
1169.327679	683.5
1169.881135	678.0
1170.434533	681.75
1170.987875	677.5
1171.541159	681.25
1172.094387	678.25
1172.647557	676.0
1173.200671	680.5
1173.753727	678.5
1174.306726	680.5
1174.859668	679.5
1175.412554	680.0
1175.965382	680.75
1176.518153	683.5
1177.070867	678.0
1177.623524	679.0
1178.176124	679.75
1178.728667	681.75
1179.281153	676.5
1179.833582	683.0
1180.385954	676.75
1180.938269	680.5
1181.490527	681.5
1182.042728	677.5
1182.594872	681.25
1183.146959	683.75
1183.698989	681.25
1184.250962	681.25
1184.802878	682.25
1185.354737	679.5
1185.906539	680.25
1186.458285	679.75
1187.009973	679.75
1187.561604	682.0
1188.113178	680.25
1188.664696	677.5
1189.216156	677.25
1189.76756	679.25
1190.318906	677.25
1190.870196	679.0
1191.421429	681.25
1191.972604	682.75
1192.523723	680.25
1193.074785	700.0
1193.62579	680.0
1194.176738	678.5
1194.727629	679.75
1195.278464	676.25
1195.829241	679.75
1196.379962	679.5
1196.930625	680.25
1197.481232	679.0
1198.031782	680.25
1198.582275	681.25
1199.132711	677.0
1199.68309	679.75
1200.233413	677.5
1200.783678	680.0
1201.333887	682.5
1201.884039	681.75
1202.434134	679.5
1202.984172	681.0
1203.534153	680.5
1204.084077	682.0
1204.633945	678.5
1205.183756	681.5
1205.73351	676.25
1206.283207	678.0
1206.832847	676.5
1207.38243	675.75
1207.931957	681.0
1208.481427	676.75
1209.03084	681.0
1209.580196	677.75
1210.129496	679.25
1210.678738	680.5
1211.227924	679.5
1211.777053	681.0
1212.326126	680.25
1212.875141	680.25
1213.4241	682.25
1213.973002	683.75
1214.521847	680.0
1215.070636	681.0
1215.619367	677.0
1216.168042	679.75
1216.71666	680.5
1217.265222	680.25
1217.813726	679.75
1218.362174	681.0
1218.910566	682.0
1219.4589	683.5
1220.007178	683.25
1220.555399	677.0
1221.103563	684.0
1221.651671	681.25
1222.199722	683.25
1222.747716	680.0
1223.295653	682.5
1223.843534	680.5
1224.391358	678.75
1224.939126	680.5
1225.486836	680.0
1226.03449	681.25
1226.582088	676.0
1227.129628	682.75
1227.677112	677.75
1228.22454	680.25
1228.77191	682.25
1229.319224	678.5
1229.866482	682.5
1230.413682	680.25
1230.960826	683.25
1231.507914	685.75
1232.054945	682.0
1232.601919	680.5
1233.148836	684.5
1233.695697	681.5
1234.242501	681.75
1234.789249	683.5
1235.33594	681.0
1235.882574	682.5
1236.429152	680.0
1236.975673	684.25
1237.522138	685.75
1238.068545	685.25
1238.614897	683.75
1239.161191	685.0
1239.70743	682.25
1240.253611	682.25
1240.799736	685.5
1241.345805	680.5
1241.891816	681.75
1242.437772	683.25
1242.98367	683.0
1243.529512	681.25
1244.075298	687.75
1244.621027	685.0
1245.1667	685.0
1245.712315	681.5
1246.257875	683.75
1246.803378	682.75
1247.348824	682.0
1247.894214	684.5
1248.439547	685.5
1248.984824	687.5
1249.530044	686.5
1250.075208	690.0
1250.620315	687.0
1251.165365	687.0
1251.71036	684.25
1252.255297	688.75
1252.800178	685.5
1253.345003	687.5
1253.889771	686.25
1254.434483	682.5
1254.979138	684.75
1255.523737	687.75
1256.068279	683.5
1256.612765	687.75
1257.157194	686.25
1257.701567	682.5
1258.245884	687.75
1258.790143	684.25
1259.334347	695.5
1260.422585	687.0
1260.966619	688.75
1261.510596	686.0
1262.054518	688.75
1262.598383	695.25
1263.142191	696.25
1263.685943	703.25
1264.229639	716.25
1264.773278	737.25
1265.316861	796.0
1265.860387	782.0
1266.403857	739.75
1266.947271	707.75
1267.490628	696.75
1268.033929	693.0
1268.577173	690.5
1269.120361	689.0
1269.663493	689.0
1270.206568	686.5
1270.749587	688.5
1271.292549	688.25
1271.835456	687.5
1272.378305	693.0
1272.921099	688.0
1273.463836	689.25
1274.006517	687.0
1274.549141	687.0
1275.091709	688.75
1275.634221	684.5
1276.176676	689.5
1276.719075	687.5
1277.261418	687.75
1277.803704	688.25
1278.345935	692.75
1278.888108	690.75
1279.430226	690.75
1279.972287	698.0
1280.514292	695.25
1281.05624	696.25
1281.598133	698.0
1282.139969	699.5
1282.681748	715.5
1283.223472	727.0
1283.765139	764.0
1284.30675	845.75
1284.848304	1115.25
1285.389803	1868.75
1285.931245	2274.75
1286.472631	1378.0
1287.01396	887.25
1287.555233	756.5
1288.09645	730.75
1288.637611	711.5
1289.178716	708.75
1289.719764	701.25
1290.260756	694.75
1290.801692	695.0
1291.342572	693.25
1291.883395	692.25
1292.424162	691.75
1292.964873	691.75
1293.505528	690.25
1294.046126	687.25
1294.586669	689.75
1295.127155	687.75
1295.667585	690.75
1296.207958	688.75
1296.748276	688.0
1297.288537	686.5
1297.828743	683.75
1298.368892	686.25
1298.908984	685.5
1299.449021	684.75
1299.989002	692.25
1300.528926	685.0
1301.068794	683.75
1301.608606	688.25
1302.148362	692.75
1302.688062	688.75
1303.227705	686.75
1303.767293	685.25
1304.306824	685.5
1304.846299	686.0
1305.385718	690.25
1305.925081	688.0
1306.464388	684.25
1307.003639	687.0
1307.542833	684.5
1308.081972	687.0
1308.621054	686.5
1309.16008	686.5
1309.699051	684.25
1310.237965	685.5
1310.776823	684.5
1311.315625	682.75
1311.85437	689.75
1312.39306	684.5
1312.931694	687.0
1313.470271	685.0
1314.008793	686.5
1314.547258	687.0
1315.085668	690.0
1315.624021	683.25
1316.162318	688.0
1316.70056	686.75
1317.238745	685.75
1317.776874	688.75
1318.314947	688.0
1318.852964	685.25
1319.390925	686.0
1319.92883	686.75
1320.466679	688.75
1321.004472	686.5
1321.542209	688.0
1322.07989	687.75
1322.617515	686.25
1323.155084	682.0
1323.692597	690.25
1324.230054	683.5
1324.767455	683.5
1325.3048	686.0
1325.842089	685.5
1326.379322	688.0
1326.916499	687.5
1327.45362	685.0
1327.990685	688.75
1328.527694	684.25
1329.064647	686.0
1329.601544	687.0
1330.138386	684.0
1330.675171	684.25
1331.2119	689.25
1331.748574	687.5
1332.285191	687.0
1332.821753	686.0
1333.358258	688.0
1333.894708	683.5
1334.431102	687.75
1334.967439	685.0
1335.503721	689.0
1336.039947	685.5
1336.576117	684.0
1337.112232	690.5
1337.64829	689.5
1338.184292	691.0
1338.720239	687.0
1339.256129	688.25
1339.791964	689.25
1340.327743	689.5
1340.863466	689.25
1341.399133	685.25
1341.934744	688.5
1342.470299	689.0
1343.005799	684.25
1343.541243	686.0
1344.07663	686.0
1344.611962	688.25
1345.147238	687.25
1345.682458	685.25
1346.217623	686.25
1346.752731	686.5
1347.287784	686.0
1347.822781	687.0
1348.357722	685.5
1348.892607	687.0
1349.427437	688.5
1349.96221	692.0
1350.496928	690.5
1351.03159	687.75
1351.566196	690.0
1352.100746	682.75
1352.635241	682.0
1353.16968	684.25
1353.704063	686.75
1354.23839	687.5
1354.772661	688.5
1355.306877	685.5
1355.841037	684.75
1356.375141	689.5
1356.909189	685.0
1357.443182	687.25
1357.977118	688.75
1358.510999	687.0
1359.044825	687.75
1359.578594	686.0
1360.112308	690.5
1360.645966	685.25
1361.179568	690.0
1361.713115	688.25
1362.246606	691.0
1362.780041	686.5
1363.31342	690.0
1363.846744	687.5
1364.380012	685.5
1364.913224	689.75
1365.446381	687.25
1365.979482	695.75
1366.512527	696.5
1367.045516	693.5
1367.57845	690.25
1368.111328	688.25
1368.644151	687.0
1369.176917	688.25
1369.709628	690.5
1370.242284	703.5
1370.774884	739.5
1371.307428	709.25
1371.839916	694.5
1372.372349	687.75
1372.904726	689.0
1373.437047	687.5
1373.969313	691.25
1374.501523	689.75
1375.033678	688.0
1375.565776	687.5
1376.09782	691.0
1376.629807	692.25
1377.161739	688.75
1377.693615	693.5
1378.225436	690.75
1378.757201	690.75
1379.288911	690.25
1379.820565	692.25
1380.352163	693.0
1380.883706	689.25
1381.415193	697.0
1381.946624	696.75
1382.478	698.75
1383.009321	699.0
1383.540585	697.5
1384.071795	701.75
1384.602948	704.0
1385.134046	708.5
1385.665089	715.25
1386.196076	729.0
1386.727007	754.5
1387.257883	791.0
1387.788703	928.0
1388.319468	1485.0
1388.850177	3240.0
1389.38083	3130.5
1389.911429	1307.75
1390.441971	854.25
1390.972458	762.0
1391.50289	732.25
1392.033266	719.75
1392.563586	713.0
1393.093851	708.25
1393.624061	703.75
1394.154214	696.0
1394.684313	695.75
1395.214356	694.5
1395.744343	696.0
1396.274275	693.5
1396.804152	693.0
1397.333973	687.5
1397.863738	693.25
1398.393448	692.25
1398.923103	692.25
1399.452702	692.25
1399.982246	687.5
1400.511734	689.25
1401.041167	692.25
1401.570544	690.0
1402.099866	691.75
1402.629132	690.0
1403.158343	687.75
1403.687498	690.0
1404.216598	688.75
1404.745643	689.5
1405.274632	695.0
1405.803566	690.5
1406.332444	693.25
1406.861267	693.75
1407.390035	694.25
1407.918747	701.25
1408.447404	707.0
1408.976005	724.25
1409.504551	762.5
1410.033041	849.0
1410.561476	902.25
1411.089856	806.5
1411.618181	729.5
1412.14645	707.75
1412.674663	693.75
1413.202821	691.0
1413.730924	693.25
1414.258972	689.75
1414.786964	692.0
1415.314901	702.0
1415.842782	689.0
1416.370608	688.5
1416.898379	684.0
1417.426094	688.25
1417.953754	688.5
1418.481359	689.25
1419.008908	686.25
1419.536402	685.0
1420.063841	687.5
1420.591225	686.75
1421.118553	688.5
1421.645826	684.25
1422.173043	682.5
1422.700205	683.75
1423.227312	686.5
1423.754364	684.5
1424.28136	689.75
1424.808301	684.0
1425.335187	688.75
1425.862017	688.0
1426.388792	687.0
1426.915512	694.25
1427.442177	686.0
1427.968786	683.75
1428.49534	682.75
1429.021839	681.75
1429.548282	687.0
1430.074671	681.5
1430.601004	683.75
1431.127281	685.25
1431.653504	683.75
1432.179671	684.0
1432.705783	684.0
1433.23184	682.0
1433.757842	681.0
1434.283788	685.25
1434.809679	682.75
1435.335515	684.75
1435.861296	683.0
1436.387022	684.0
1436.912692	680.5
1437.438307	685.5
1437.963867	682.75
1438.489372	681.5
1439.014821	679.25
1439.540216	683.0
1440.065555	680.5
1440.590839	679.5
1441.116068	683.25
1441.641241	678.25
1442.16636	681.75
1442.691423	678.75
1443.216431	682.0
1443.741384	679.5
1444.266282	672.75
1444.791125	678.25
1445.315912	680.75
1445.840645	675.5
1446.365322	678.75
1446.889944	681.75
1447.414511	682.75
1447.939023	681.5
1448.463479	679.0
1448.987881	679.5
1449.512228	678.0
1450.036519	680.25
1450.560755	679.75
1451.084936	680.75
1451.609062	679.75
1452.133133	680.0
1452.657149	680.75
1453.18111	677.75
1453.705016	679.25
1454.228866	677.25
1454.752662	678.25
1455.276402	675.25
1455.800088	678.25
1456.323718	679.0
1456.847293	679.0
1457.370813	676.5
1457.894278	683.75
1458.417689	677.25
1458.941044	679.0
1459.464344	678.75
1459.987588	679.5
1460.510778	676.75
1461.033913	678.75
1461.556993	678.25
1462.080018	678.25
1462.602987	680.5
1463.125902	689.5
1463.648762	681.75
1464.171567	677.0
1464.694316	677.0
1465.217011	678.25
1465.739651	681.0
1466.262235	675.75
1466.784765	678.25
1467.30724	678.5
1467.829659	677.5
1468.352024	675.75
1468.874334	679.75
1469.396589	674.75
1469.918788	680.75
1470.440933	681.25
1470.963023	678.75
1471.485058	674.5
1472.007038	678.5
1472.528963	675.0
1473.050833	677.25
1473.572648	677.25
1474.094408	680.25
1474.616113	677.0
1475.137763	678.75
1475.659358	681.5
1476.180899	674.0
1476.702384	676.5
1477.223815	677.25
1477.74519	675.0
1478.266511	674.5
1478.787777	677.25
1479.308988	674.25
1479.830144	679.5
1480.351245	677.0
1480.872291	678.25
1481.393282	673.0
1481.914218	678.5
1482.4351	676.75
1482.955926	671.75
1483.476698	676.5
1483.997415	676.0
1484.518077	678.0
1485.038684	680.5
1485.559236	681.0
1486.079734	675.5
1486.600176	677.5
1487.120564	679.25
1487.640896	676.75
1488.161174	679.5
1488.681398	678.75
1489.201566	676.25
1489.721679	678.5
1490.241738	676.25
1490.761742	679.25
1491.281691	673.0
1491.801585	677.75
1492.321424	676.25
1492.841208	673.75
1493.360938	674.75
1493.880613	676.5
1494.400233	675.0
1494.919798	678.75
1495.439309	674.5
1495.958764	676.25
1496.478165	675.75
1496.997511	673.75
1497.516803	678.0
1498.036039	676.5
1498.555221	676.75
1499.074348	674.5
1499.59342	686.75
1500.112438	675.0
1500.6314	676.25
1501.150308	676.0
1501.669161	676.0
1502.18796	676.25
1502.706704	679.25
1503.225393	676.5
1503.744027	677.0
1504.262606	673.25
1504.781131	670.25
1505.299601	678.25
1505.818016	678.5
1506.336377	677.0
1506.854683	680.0
1507.372934	677.75
1507.89113	676.25
1508.409272	678.0
1508.927359	680.0
1509.445391	676.75
1509.963369	673.0
1510.481292	684.25
1510.99916	679.25
1511.516974	674.25
1512.034733	677.25
1512.552437	677.5
1513.070086	674.25
1513.587681	677.75
1514.105221	674.25
1514.622707	678.75
1515.140138	676.0
1515.657514	675.0
1516.174836	678.25
1516.692102	676.25
1517.209315	677.75
1517.726472	674.5
1518.243575	677.5
1518.760624	677.5
1519.277617	676.25
1519.794557	677.75
1520.311441	672.75
1520.828271	675.75
1521.345046	677.25
1521.861767	676.75
1522.378433	678.0
1522.895044	677.0
1523.411601	674.75
1523.928103	676.0
1524.444551	677.75
1524.960944	676.5
1525.477282	677.75
1525.993566	682.5
1526.509795	680.75
1527.02597	674.75
1527.54209	677.5
1528.058156	674.75
1528.574167	677.25
1529.090123	673.5
1529.606025	676.75
1530.121872	675.0
1530.637665	676.25
1531.153403	676.5
1531.669087	674.75
1532.184716	678.5
1532.700291	676.75
1533.215811	678.0
1533.731276	678.25
1534.246687	673.0
1534.762044	676.25
1535.277346	677.0
1535.792593	675.75
1536.307786	678.25
1536.822924	677.25
1537.338008	677.5
1537.853038	678.25
1538.368013	676.25
1538.882933	674.0
1539.397799	676.25
1539.91261	680.25
1540.427367	674.75
1540.94207	674.5
1541.456718	672.25
1541.971311	678.0
1542.48585	677.75
1543.000335	675.5
1543.514765	675.75
1544.029141	673.5
1544.543462	673.75
1545.057729	677.25
1545.571941	676.25
1546.086099	676.0
1546.600202	678.25
1547.114251	675.25
1547.628246	677.75
1548.142186	676.5
1548.656072	676.5
1549.169903	680.0
1549.68368	676.75
1550.197402	676.75
1550.71107	674.75
1551.224684	674.0
1551.738243	676.75
1552.251748	672.0
1552.765198	678.75
1553.278594	676.5
1553.791936	674.75
1554.305223	677.0
1554.818456	679.5
1555.331634	675.75
1555.844758	676.75
1556.357828	672.25
1556.870843	677.0
1557.383804	675.25
1557.896711	674.5
1558.409563	679.0
1558.922361	677.5
1559.435105	677.75
1559.947794	679.0
1560.460429	675.75
1560.973009	674.75
1561.485535	675.75
1561.998007	677.75
1562.510425	675.5
1563.022788	676.5
1563.535097	675.25
1564.047351	678.5
1564.559551	677.25
1565.071697	676.75
1565.583789	677.5
1566.095826	677.5
1566.607809	676.25
1567.119738	676.75
1567.631612	678.0
1568.143432	677.0
1568.655198	675.25
1569.16691	678.75
1569.678567	676.25
1570.19017	676.75
1570.701719	677.0
1571.213213	674.75
1571.724653	675.0
1572.236039	676.0
1572.747371	676.25
1573.258648	677.0
1573.769871	675.25
1574.28104	673.5
1574.792155	674.5
1575.303215	675.75
1575.814221	672.75
1576.325173	676.25
1576.836071	675.5
1577.346914	677.25
1577.857703	674.25
1578.368438	679.25
1578.879119	674.5
1579.389746	674.25
1579.900318	675.0
1580.410836	673.5
1580.9213	671.25
1581.43171	675.0
1581.942065	674.0
1582.452366	673.75
1582.962614	676.5
1583.472807	677.25
1583.982945	676.5
1584.49303	676.0
1585.00306	672.0
1585.513037	676.0
1586.022959	677.25
1586.532827	677.5
1587.04264	675.5
1587.5524	674.5
1588.062105	674.75
1588.571757	674.25
1589.081354	673.5
1589.590897	677.5
1590.100386	676.75
1590.60982	677.25
1591.119201	678.0
1591.628527	676.75
1592.1378	671.25
