1042.452273	739.7999878
1043.018714	735.5999756
1043.585098	737.4000244
1044.151424	739.7999878
1044.717692	740.2000122
1045.283903	739.7999878
1045.850056	737.5999756
1046.416151	739.7999878
1046.982188	743.0
1047.548167	732.4000244
1048.114089	736.4000244
1049.24576	741.4000244
1049.811509	733.7999878
1050.3772	732.5999756
1050.942833	733.2000122
1051.508408	733.5999756
1052.073926	730.7999878
1052.639387	729.7999878
1053.204789	732.5999756
1053.770134	727.7999878
1054.335421	723.5999756
1054.900651	725.0
1055.465823	722.5999756
1056.030937	728.7999878
1056.595993	728.0
1057.160992	723.7999878
1057.725934	726.4000244
1058.290817	723.0
1058.855643	729.7999878
1059.420411	723.0
1059.985122	723.4000244
1060.549775	728.4000244
1061.114371	723.5999756
1061.678908	727.0
1062.243389	723.7999878
1062.807811	726.0
1063.372176	729.2000122
1063.936483	719.0
1064.500733	723.7999878
1065.064925	724.4000244
1065.62906	727.2000122
1066.193137	724.4000244
1066.757156	720.5999756
1067.321118	722.0
1067.885022	719.0
1068.448869	721.2000122
1069.012658	720.5999756
1069.57639	723.7999878
1070.140063	728.0
1070.70368	727.4000244
1071.267239	723.4000244
1071.83074	723.7999878
1072.394184	722.2000122
1072.95757	723.5999756
1073.520899	722.0
1074.08417	727.4000244
1074.647383	726.2000122
1075.21054	718.7999878
1075.773638	720.5999756
1076.336679	719.7999878
1076.899663	721.2000122
1077.462589	724.7999878
1078.025457	724.5999756
1078.588268	724.0
1079.151022	723.7999878
1079.713718	722.2000122
1080.276356	722.2000122
1080.838937	718.4000244
1081.401461	721.4000244
1081.963927	722.4000244
1082.526336	722.0
1083.088687	726.0
1083.650981	723.7999878
1084.213217	721.5999756
1084.775396	723.7999878
1085.337517	725.5999756
1085.899581	719.7999878
1086.461587	722.2000122
1087.023536	718.2000122
1087.585428	726.2000122
1088.147262	723.4000244
1088.709039	723.0
1089.270758	726.5999756
1089.83242	722.4000244
1090.394024	721.7999878
1090.955571	725.2000122
1091.517061	724.4000244
1092.078493	723.4000244
1092.639868	720.2000122
1093.201185	724.5999756
1093.762445	717.0
1094.323648	727.0
1094.884793	717.7999878
1095.445881	722.4000244
1096.006911	720.5999756
1096.567884	718.7999878
1097.1288	730.2000122
1097.689659	725.2000122
1098.25046	720.4000244
1098.811203	724.7999878
1099.37189	720.7999878
1099.932518	719.4000244
1100.49309	724.2000122
1101.053604	721.5999756
1101.614061	716.7999878
1102.174461	723.0
1102.734803	721.4000244
1103.295088	725.4000244
1103.855316	727.5999756
1104.415486	720.7999878
1104.975599	720.7999878
1105.535655	724.7999878
1106.095653	724.0
1106.655594	720.4000244
1107.215478	718.0
1107.775305	725.7999878
1108.335074	721.0
1108.894786	723.2000122
1109.45444	722.0
1110.014038	722.0
1110.573578	720.0
1111.133061	723.0
1111.692486	720.4000244
1112.251854	716.0
1112.811165	722.2000122
1113.370419	726.7999878
1113.929616	726.0
1114.488755	724.7999878
1115.047837	719.7999878
1115.606862	723.4000244
1116.16583	725.0
1116.72474	719.4000244
1117.283593	725.4000244
1117.842389	723.4000244
1118.401128	727.4000244
1118.959809	723.0
1119.518433	722.7999878
1120.077	722.0
1120.63551	725.0
1121.193963	719.0
1121.752358	719.7999878
1122.310697	723.5999756
1122.868978	721.7999878
1123.427202	723.7999878
1123.985368	717.5999756
1124.543478	723.4000244
1125.10153	723.2000122
1125.659526	725.5999756
1126.217464	726.5999756
1126.775345	726.4000244
1127.333168	725.4000244
1127.890935	721.4000244
1128.448644	722.5999756
1129.006297	727.2000122
1129.563892	726.0
1130.12143	725.4000244
1130.678911	728.4000244
1131.236335	721.5999756
1131.793701	717.4000244
1132.351011	723.5999756
1132.908263	723.0
1133.465458	723.4000244
1134.022597	724.0
1134.579678	724.4000244
1135.136702	718.0
1135.693669	723.5999756
1136.250578	721.0
1136.807431	721.7999878
1137.364227	720.4000244
1137.920965	726.5999756
1138.477647	724.7999878
1139.034271	719.2000122
1139.590839	726.5999756
1140.147349	719.7999878
1140.703802	722.0
1141.260198	727.0
1141.816537	728.2000122
1142.37282	726.2000122
1142.929045	726.0
1143.485213	722.5999756
1144.041323	724.4000244
1144.597377	723.0
1145.153374	724.4000244
1145.709314	721.7999878
1146.265197	724.2000122
1146.821023	722.7999878
1147.376792	724.7999878
1147.932503	724.0
1148.488158	722.0
1149.043756	720.4000244
1149.599297	722.4000244
1150.154781	720.5999756
1150.710207	724.2000122
1151.265577	722.4000244
1151.82089	723.5999756
1152.376146	727.2000122
1152.931345	721.7999878
1153.486487	717.4000244
1154.041572	720.0
1154.5966	724.2000122
1155.151571	722.5999756
1155.706485	721.7999878
1156.261342	722.4000244
1156.816142	720.7999878
1157.370885	720.4000244
1157.925572	722.2000122
1158.480201	722.5999756
1159.034774	723.4000244
1159.589289	723.0
1160.143748	723.4000244
1160.698149	720.4000244
1161.252494	724.5999756
1161.806782	723.7999878
1162.361013	724.7999878
1162.915187	726.0
1163.469304	722.5999756
1164.023364	723.0
1164.577368	722.5999756
1165.131314	725.2000122
1165.685204	729.2000122
1166.239036	727.4000244
1166.792812	727.5999756
1167.346531	727.7999878
1167.900193	723.5999756
1168.453798	723.4000244
1169.007347	728.5999756
1169.560838	719.2000122
1170.114273	723.0
1170.66765	725.7999878
1171.220971	724.4000244
1171.774235	725.2000122
1172.327443	722.0
1172.880593	723.5999756
1173.433687	725.7999878
1173.986723	726.5999756
1174.539703	723.2000122
1175.092626	722.0
1175.645493	717.7999878
1176.198302	720.0
1176.751055	723.2000122
1177.303751	717.5999756
1177.85639	725.4000244
1178.408972	720.7999878
1178.961498	721.5999756
1179.513966	724.4000244
1180.066378	717.4000244
1180.618733	718.2000122
1181.171032	718.4000244
1181.723273	720.2000122
1182.275458	715.7999878
1182.827586	718.5999756
1183.379657	721.5999756
1183.931672	721.5999756
1184.48363	721.5999756
1185.035531	724.0
1185.587375	724.7999878
1186.139162	720.4000244
1186.690893	722.2000122
1187.242567	721.5999756
1187.794184	725.0
1188.345745	720.4000244
1188.897249	723.0
1189.448696	719.7999878
1190.000086	718.0
1190.55142	724.0
1191.102697	721.2000122
1191.653918	724.4000244
1192.205081	725.4000244
1192.756188	720.2000122
1193.307238	737.0
1193.858232	722.2000122
1194.409169	726.4000244
1194.960049	723.5999756
1195.510872	723.2000122
1196.061639	725.2000122
1196.612349	719.4000244
1197.163003	723.0
1197.713599	721.5999756
1198.264139	719.7999878
1198.814623	719.4000244
1199.36505	724.0
1199.91542	723.2000122
1200.465734	717.7999878
1201.01599	721.2000122
1201.566191	720.5999756
1202.116334	722.4000244
1202.666421	724.5999756
1203.216452	724.0
1203.766425	723.0
1204.316343	717.7999878
1204.866203	723.5999756
1205.416007	721.2000122
1205.965754	727.5999756
1206.515445	722.7999878
1207.065079	725.0
1207.614657	723.0
1208.164177	721.0
1208.713642	722.2000122
1209.26305	723.7999878
1209.812401	722.0
1210.361695	723.0
1210.910933	718.2000122
1211.460115	722.5999756
1212.00924	720.2000122
1212.558308	719.5999756
1213.10732	720.2000122
1213.656275	727.4000244
1214.205174	724.2000122
1214.754016	721.2000122
1215.302801	722.4000244
1215.85153	724.7999878
1216.400203	719.4000244
1216.948819	722.4000244
1217.497378	720.4000244
1218.045881	719.0
1218.594327	719.5999756
1219.142717	729.0
1219.691051	720.7999878
1220.239327	726.4000244
1220.787548	723.0
1221.335712	719.4000244
1221.883819	723.0
1222.43187	722.4000244
1222.979864	724.2000122
1223.527802	721.0
1224.075683	722.7999878
1224.623508	720.2000122
1225.171277	718.2000122
1225.718989	722.0
1226.266644	725.0
1226.814243	719.2000122
1227.361786	724.0
1227.909272	724.4000244
1228.456702	722.2000122
1229.004075	721.2000122
1229.551392	723.5999756
1230.098652	726.5999756
1230.645856	724.2000122
1231.193003	724.5999756
1231.740094	723.5999756
1232.287129	725.2000122
1232.834107	721.0
1233.381029	725.4000244
1233.927894	726.2000122
1234.474703	720.7999878
1235.021455	718.7999878
1235.568151	724.7999878
1236.114791	724.2000122
1236.661374	721.4000244
1237.207901	724.0
1237.754372	722.5999756
1238.300786	726.2000122
1238.847144	720.2000122
1239.393445	723.7999878
1239.93969	719.4000244
1240.485879	723.2000122
1241.032011	724.4000244
1241.578087	723.7999878
1242.124106	727.0
1242.67007	722.5999756
1243.215976	723.2000122
1243.761827	725.7999878
1244.307621	721.4000244
1244.853359	720.0
1245.39904	722.7999878
1245.944665	726.7999878
1246.490234	723.4000244
1247.035746	722.4000244
1247.581203	719.5999756
1248.126602	733.5999756
1248.671946	726.0
1249.217233	727.0
1249.762464	730.2000122
1250.307638	722.0
1250.852757	724.2000122
1251.397819	724.4000244
1251.942824	725.7999878
1252.487774	726.7999878
1253.032667	725.7999878
1253.577503	726.2000122
1254.122284	723.4000244
1254.667008	727.4000244
1255.211676	721.7999878
1255.756288	727.2000122
1256.300843	724.2000122
1256.845342	728.7999878
1257.389785	722.5999756
1257.934172	726.7999878
1258.478502	728.0
1259.022776	730.4000244
1259.566994	729.7999878
1260.111156	740.5999756
1260.655261	725.5999756
1261.199311	723.4000244
1261.743304	728.5999756
1262.28724	731.5999756
1262.831121	728.0
1263.374945	731.4000244
1263.918713	731.7999878
1264.462425	738.2000122
1265.006081	748.5999756
1265.54968	761.4000244
1266.093223	750.4000244
1266.636711	739.2000122
1267.180141	731.2000122
1267.723516	735.7999878
1268.266835	730.0
1268.810097	731.2000122
1269.353303	732.2000122
1269.896453	729.5999756
1270.439547	732.0
1270.982584	732.4000244
1271.525566	726.7999878
1272.068491	730.4000244
1272.61136	731.4000244
1273.154173	729.2000122
1273.69693	728.7999878
1274.239631	733.5999756
1274.782275	730.5999756
1275.324864	730.5999756
1275.867396	732.5999756
1276.409872	731.2000122
1276.952292	730.5999756
1277.494656	729.2000122
1278.036964	733.0
1278.579215	734.0
1279.121411	731.4000244
1279.66355	729.7999878
1280.205634	740.7999878
1280.747661	735.4000244
1281.289632	735.5999756
1281.831547	736.7999878
1282.373406	739.5999756
1282.915209	735.7999878
1283.456955	736.2000122
1283.998646	754.7999878
1284.540281	776.7999878
1285.081859	868.2000122
1285.623381	1101.199951
1286.164848	1100.599976
1286.706258	830.7999878
1287.247612	762.7999878
1287.788911	743.7999878
1288.330153	734.2000122
1288.871339	742.0
1289.412469	731.5999756
1289.953543	733.5999756
1290.494561	734.0
1291.035523	736.2000122
1291.576428	725.0
1292.117278	734.5999756
1292.658072	729.0
1293.19881	730.7999878
1293.739492	731.0
1294.280118	731.5999756
1294.820687	731.2000122
1295.361201	729.2000122
1295.901659	735.7999878
1296.442061	733.7999878
1296.982406	732.0
1297.522696	731.4000244
1298.06293	726.5999756
1298.603108	731.4000244
1299.143229	730.2000122
1299.683295	732.4000244
1300.223305	729.5999756
1300.763259	733.7999878
1301.303157	730.0
1301.842999	731.7999878
1302.382785	733.5999756
1302.922515	735.2000122
1303.462189	727.2000122
1304.001807	734.5999756
1304.541369	729.5999756
1305.080875	730.4000244
1305.620326	734.7999878
1306.15972	726.0
1306.699058	725.2000122
1307.238341	727.7999878
1307.777567	726.7999878
1308.316738	725.2000122
1308.855853	732.5999756
1309.394912	725.5999756
1309.933915	730.2000122
1310.472862	727.4000244
1311.011753	729.2000122
1311.550588	729.5999756
1312.089367	724.5999756
1312.62809	724.2000122
1313.166758	731.4000244
1313.70537	726.7999878
1314.243925	726.2000122
1314.782425	732.4000244
1315.320869	723.0
1315.859257	722.5999756
1316.397589	725.4000244
1316.935866	726.7999878
1317.474086	728.2000122
1318.012251	725.4000244
1318.55036	725.2000122
1319.088413	728.4000244
1319.62641	721.7999878
1320.164351	723.0
1320.702236	725.0
1321.240066	727.4000244
1321.777839	724.5999756
1322.315557	722.5999756
1322.853219	726.4000244
1323.390826	725.4000244
1323.928376	728.4000244
1324.465871	723.0
1325.003309	723.4000244
1325.540692	723.4000244
1326.07802	724.5999756
1326.615291	726.0
1327.152506	730.2000122
1327.689666	728.2000122
1328.22677	722.0
1328.763818	726.7999878
1329.300811	725.7999878
1329.837747	724.0
1330.374628	724.5999756
1330.911453	720.4000244
1331.448222	721.5999756
1331.984936	725.7999878
1332.521594	726.7999878
1333.058196	725.2000122
1333.594742	720.4000244
1334.131232	722.7999878
1334.667667	725.0
1335.204046	726.4000244
1335.740369	718.5999756
1336.276637	726.2000122
1336.812848	727.0
1337.349004	727.7999878
1337.885105	725.0
1338.421149	723.7999878
1338.957138	727.0
1339.493071	728.7999878
1340.028949	724.2000122
1340.56477	726.2000122
1341.100536	725.2000122
1341.636246	725.7999878
1342.171901	722.4000244
1342.7075	721.0
1343.243043	723.5999756
1343.77853	724.4000244
1344.313962	725.2000122
1344.849338	723.7999878
1345.384659	723.7999878
1345.919923	723.5999756
1346.455133	723.2000122
1346.990286	724.7999878
1347.525384	727.7999878
1348.060426	725.2000122
1348.595412	724.0
1349.130343	723.7999878
1349.665218	724.4000244
1350.200037	721.5999756
1350.734801	724.2000122
1351.269509	720.4000244
1351.804162	727.7999878
1352.338758	725.0
1352.8733	717.5999756
1353.407785	724.4000244
1353.942215	724.2000122
1354.476589	728.4000244
1355.010908	723.4000244
1355.545171	723.7999878
1356.079379	728.4000244
1356.61353	727.7999878
1357.147627	727.0
1357.681667	723.0
1358.215652	723.7999878
1358.749582	721.0
1359.283456	720.0
1359.817274	722.4000244
1360.351037	722.5999756
1360.884744	720.2000122
1361.418395	721.7999878
1361.951991	723.4000244
1362.485531	724.5999756
1363.019016	721.7999878
1363.552445	718.5999756
1364.085819	728.0
1364.619137	722.2000122
1365.1524	731.5999756
1365.685607	727.2000122
1366.218758	727.5999756
1366.751854	727.0
1367.284894	729.4000244
1367.817879	730.0
1368.350808	727.2000122
1368.883682	726.4000244
1369.4165	728.0
1369.949263	725.0
1370.48197	744.0
1371.014622	745.7999878
1371.547218	728.4000244
1372.079758	728.7999878
1372.612244	726.5999756
1373.144673	726.7999878
1373.677047	722.2000122
1374.209366	722.4000244
1374.741629	728.2000122
1375.273836	726.0
1375.805989	725.4000244
1376.338085	730.2000122
1376.870126	723.0
1377.402112	730.5999756
1377.934042	727.5999756
1378.465917	728.7999878
1378.997736	724.5999756
1379.5295	725.4000244
1380.061208	733.4000244
1380.592861	724.5999756
1381.124459	730.7999878
1381.656	731.5999756
1382.187487	726.5999756
1382.718918	727.5999756
1383.250294	725.0
1383.781614	729.4000244
1384.312879	728.2000122
1384.844088	732.7999878
1385.375242	733.2000122
1385.90634	735.5999756
1386.437383	740.7999878
1386.968371	745.2000122
1387.499303	755.7999878
1388.03018	807.5999756
1388.561001	1033.0
1389.091767	1509.0
1389.622478	1120.199951
1390.153133	810.2000122
1390.683733	756.5999756
1391.214277	740.7999878
1391.744766	737.2000122
1392.2752	733.4000244
1392.805578	733.2000122
1393.335901	735.5999756
1393.866168	730.2000122
1394.396381	728.0
1394.926537	731.5999756
1395.456639	727.5999756
1395.986685	728.5999756
1396.516675	724.7999878
1397.046611	730.7999878
1397.576491	726.4000244
1398.106315	731.5999756
1398.636084	728.4000244
1399.165798	728.5999756
1399.695457	722.2000122
1400.22506	724.5999756
1400.754608	724.5999756
1401.284101	728.2000122
1401.813538	723.5999756
1402.34292	725.7999878
1402.872247	727.5999756
1403.401518	731.2000122
1403.930734	727.0
1404.459895	725.7999878
1404.989	732.2000122
1405.51805	726.2000122
1406.047045	723.4000244
1406.575984	732.0
1407.104869	729.2000122
1407.633697	732.0
1408.162471	731.5999756
1408.691189	733.4000244
1409.219852	737.4000244
1409.74846	754.2000122
1410.277013	784.5999756
1410.80551	775.0
1411.333952	745.4000244
1411.862339	733.2000122
1412.39067	729.5999756
1412.918946	732.4000244
1413.447167	729.2000122
1413.975333	728.0
1414.503444	725.5999756
1415.031499	730.0
1415.559499	736.5999756
1416.087444	725.7999878
1416.615333	722.0
1417.143167	724.5999756
1417.670947	727.0
1418.19867	726.4000244
1418.726339	725.0
1419.253952	722.4000244
1419.781511	723.5999756
1420.309014	730.5999756
1420.836461	726.5999756
1421.363854	724.4000244
1421.891191	725.0
1422.418474	723.7999878
1422.945701	727.0
1423.472872	722.7999878
1423.999989	724.2000122
1424.52705	729.0
1425.054057	722.5999756
1425.581008	724.7999878
1426.107904	729.2000122
1426.634745	728.7999878
1427.16153	726.5999756
1427.688261	724.4000244
1428.214936	727.0
1428.741556	728.4000244
1429.268121	727.0
1429.794631	726.4000244
1430.321085	725.2000122
1430.847485	721.7999878
1431.373829	725.5999756
1431.900118	725.4000244
1432.426353	727.0
1432.952532	732.5999756
1433.478655	729.0
1434.004724	725.0
1434.530738	726.5999756
1435.056696	730.7999878
1435.5826	723.5999756
1436.108448	727.4000244
1436.634241	722.4000244
1437.159979	724.4000244
1437.685662	731.0
1438.21129	723.5999756
1438.736863	724.2000122
1439.262381	721.7999878
1439.787843	728.2000122
1440.313251	726.5999756
1440.838603	730.2000122
1441.3639	728.2000122
1441.889143	727.0
1442.41433	728.7999878
1442.939462	726.0
1443.464539	723.4000244
1443.989561	727.5999756
1444.514528	723.2000122
1445.03944	724.5999756
1445.564297	727.0
1446.089099	726.7999878
1446.613846	724.4000244
1447.138537	733.5999756
1447.663174	723.7999878
1448.187756	729.4000244
1448.712282	726.2000122
1449.236754	721.7999878
1449.761171	723.0
1450.285532	724.4000244
1450.809839	732.2000122
1451.33409	722.2000122
1451.858287	725.4000244
1452.382428	727.7999878
1452.906515	723.7999878
1453.430546	726.2000122
1453.954523	730.7999878
1454.478444	728.7999878
1455.002311	726.2000122
1455.526123	726.5999756
1456.049879	728.7999878
1456.573581	729.4000244
1457.097227	725.0
1457.620819	723.5999756
1458.144356	723.5999756
1458.667837	724.7999878
1459.191264	724.7999878
1459.714636	719.2000122
1460.237952	724.4000244
1460.761214	727.4000244
1461.284421	729.0
1461.807573	727.5999756
1462.33067	721.2000122
1462.853712	726.2000122
1463.376699	732.0
1463.899632	724.0
1464.422509	723.7999878
1464.945331	725.0
1465.468099	727.5999756
1465.990811	722.7999878
1466.513469	723.0
1467.036071	724.2000122
1467.558619	725.2000122
1468.081112	725.0
1468.60355	719.4000244
1469.125933	724.0
1469.648261	724.7999878
1470.170534	725.2000122
1470.692752	722.7999878
1471.214916	728.0
1471.737024	724.5999756
1472.259078	718.5999756
1472.781077	728.2000122
1473.303021	721.2000122
1473.82491	723.5999756
1474.346744	724.5999756
1474.868523	722.4000244
1475.390248	723.0
1475.911917	721.7999878
1476.433532	725.2000122
1476.955092	723.0
1477.476597	723.2000122
1477.998047	724.0
1478.519442	722.2000122
1479.040783	725.2000122
1479.562068	724.7999878
1480.083299	728.7999878
1480.604475	720.4000244
1481.125596	725.2000122
1481.646663	722.5999756
1482.167674	725.0
1482.688631	724.0
1483.209533	719.0
1483.73038	726.2000122
1484.251172	724.2000122
1484.771909	729.4000244
1485.292592	723.7999878
1485.81322	722.7999878
1486.333793	726.7999878
1486.854311	723.5999756
1487.374775	725.5999756
1487.895183	724.7999878
1488.415537	722.7999878
1488.935836	726.4000244
1489.456081	727.0
1489.97627	727.0
1490.496405	721.7999878
1491.016485	728.0
1491.536511	723.2000122
1492.056481	732.0
1492.576397	727.0
1493.096258	723.4000244
1493.616064	724.2000122
1494.135816	722.2000122
1494.655513	725.7999878
1495.175155	724.0
1495.694742	727.0
1496.214274	719.2000122
1496.733752	723.0
1497.253175	725.5999756
1497.772544	720.0
1498.291858	727.2000122
1498.811116	723.4000244
1499.330321	722.5999756
1499.84947	727.4000244
1500.368565	723.0
1500.887605	723.4000244
1501.406591	718.5999756
1501.925521	723.5999756
1502.444397	723.5999756
1502.963219	723.7999878
1503.481985	719.7999878
1504.000697	719.7999878
1504.519355	723.7999878
1505.037957	723.5999756
1505.556505	720.7999878
1506.074999	724.0
1506.593437	726.7999878
1507.111821	721.2000122
1507.63015	724.7999878
1508.148425	718.0
1508.666645	722.7999878
1509.18481	723.4000244
1509.702921	727.5999756
1510.220977	723.4000244
1510.738979	730.0
1511.256925	724.0
1511.774817	722.0
1512.292655	724.7999878
1512.810438	726.5999756
1513.328166	725.0
1513.84584	722.2000122
1514.363459	723.0
1514.881023	722.0
1515.398533	725.2000122
1515.915988	720.7999878
1516.433389	720.5999756
1516.950734	720.0
1517.468026	726.0
1517.985263	721.2000122
1518.502445	722.4000244
1519.019572	724.4000244
1519.536645	724.5999756
1520.053664	718.5999756
1520.570628	722.2000122
1521.087537	720.2000122
1521.604392	722.2000122
1522.121192	724.2000122
1522.637937	720.0
1523.154628	728.0
1523.671265	720.4000244
1524.187847	723.0
1524.704374	725.7999878
1525.220847	722.0
1525.737265	718.7999878
1526.253629	727.7999878
1526.769938	722.7999878
1527.286192	727.0
1527.802392	727.4000244
1528.318538	728.7999878
1528.834629	721.5999756
1529.350666	727.2000122
1529.866648	721.5999756
1530.382575	721.2000122
1530.898448	725.2000122
1531.414266	721.2000122
1531.93003	723.4000244
1532.44574	722.2000122
1532.961395	726.0
1533.476995	724.5999756
1533.992541	719.7999878
1534.508033	726.5999756
1535.02347	724.4000244
1535.538852	726.2000122
1536.05418	725.2000122
1536.569454	722.2000122
1537.084673	722.2000122
1537.599837	722.5999756
1538.114947	723.7999878
1538.630003	719.7999878
1539.145004	726.4000244
1539.659951	725.2000122
1540.174843	723.7999878
1540.689681	725.5999756
1541.204465	728.7999878
1541.719194	719.5999756
1542.233868	727.7999878
1542.748488	721.7999878
1543.263054	725.4000244
1543.777565	719.5999756
1544.292022	721.5999756
1544.806424	721.7999878
1545.320772	727.0
1545.835066	725.2000122
1546.349305	721.0
1546.863489	728.4000244
1547.37762	725.4000244
1547.891696	722.0
1548.405717	724.7999878
1548.919684	723.5999756
1549.433597	725.2000122
1549.947455	728.7999878
1550.461259	730.5999756
1550.975009	723.7999878
1551.488704	721.4000244
1552.002345	726.2000122
1552.515931	728.2000122
1553.029463	723.7999878
1553.542941	722.0
1554.056364	725.4000244
1554.569733	724.5999756
1555.083048	721.0
1555.596308	723.7999878
1556.109514	727.2000122
1556.622665	724.4000244
1557.135762	723.0
1557.648805	721.0
1558.161794	725.5999756
1558.674728	722.2000122
1559.187608	724.7999878
1559.700433	725.4000244
1560.213205	725.5999756
1560.725921	722.5999756
1561.238584	727.0
1561.751192	721.5999756
1562.263746	730.5999756
1562.776246	726.7999878
1563.288691	729.4000244
1563.801082	726.5999756
1564.313419	719.0
1564.825701	723.7999878
1565.337929	724.2000122
1565.850103	728.0
1566.362223	729.0
1566.874288	723.5999756
1567.386299	726.7999878
1567.898256	724.0
1568.410158	729.4000244
1568.922007	728.0
1569.4338	723.7999878
1569.94554	729.2000122
1570.457226	729.0
1570.968857	730.5999756
1571.480434	723.2000122
1571.991956	723.7999878
1572.503425	730.5999756
1573.014839	729.5999756
1573.526199	731.7999878
1574.037505	724.2000122
1574.548756	727.5999756
1575.059953	728.2000122
1575.571096	724.0
1576.082185	728.0
1576.59322	727.5999756
1577.1042	731.0
1577.615126	725.7999878
1578.125998	723.0
1578.636816	730.0
1579.14758	731.5999756
1579.658289	732.5999756
1580.168944	735.7999878
1580.679545	726.5999756
1581.190092	730.2000122
1581.700585	725.0
1582.211023	734.7999878
1582.721407	728.7999878
1583.231737	725.2000122
1583.742013	730.5999756
1584.252235	730.4000244
1584.762403	727.5999756
1585.272516	727.0
1585.782575	725.7999878
1586.292581	731.4000244
1586.802532	727.4000244
1587.312428	727.0
1587.822271	726.2000122
1588.33206	729.7999878
1588.841794	730.2000122
1589.351474	724.0
1589.8611	724.0
1590.370672	728.4000244
1590.88019	725.4000244
1591.389654	725.0
1591.899064	728.7999878
1592.408419	725.4000244
