1042.452273	708.7999878
1043.018714	709.5999756
1043.585098	708.0
1044.151424	710.7999878
1044.717692	708.4000244
1045.283903	711.2000122
1045.850056	717.0
1046.982188	708.5999756
1047.548167	707.7999878
1048.114089	707.4000244
1048.679953	704.2000122
1049.24576	709.5999756
1049.811509	706.0
1050.3772	706.4000244
1050.942833	704.7999878
1051.508408	706.7999878
1052.073926	706.0
1052.639387	701.7999878
1053.204789	708.0
1053.770134	706.4000244
1054.335421	704.2000122
1054.900651	706.2000122
1055.465823	703.4000244
1056.030937	703.4000244
1056.595993	704.0
1057.160992	703.5999756
1057.725934	700.5999756
1058.290817	706.2000122
1058.855643	703.7999878
1059.420411	699.7999878
1059.985122	705.0
1060.549775	703.4000244
1061.114371	700.0
1061.678908	702.4000244
1062.243389	704.0
1062.807811	704.5999756
1063.372176	705.4000244
1063.936483	700.4000244
1064.500733	704.2000122
1065.064925	701.4000244
1065.62906	703.4000244
1066.193137	704.2000122
1066.757156	707.7999878
1067.321118	703.5999756
1067.885022	702.2000122
1068.448869	703.0
1069.012658	702.5999756
1069.57639	703.4000244
1070.140063	712.2000122
1070.70368	703.7999878
1071.267239	699.0
1071.83074	700.2000122
1072.394184	701.4000244
1072.95757	702.5999756
1073.520899	703.4000244
1074.08417	706.2000122
1074.647383	701.5999756
1075.21054	699.0
1075.773638	701.7999878
1076.336679	699.4000244
1076.899663	705.2000122
1077.462589	696.7999878
1078.025457	701.0
1078.588268	702.4000244
1079.151022	700.4000244
1079.713718	703.7999878
1080.276356	701.7999878
1080.838937	701.7999878
1081.401461	703.4000244
1081.963927	706.0
1082.526336	702.5999756
1083.088687	699.4000244
1083.650981	700.5999756
1084.213217	700.7999878
1084.775396	705.4000244
1085.337517	702.2000122
1085.899581	701.2000122
1086.461587	709.4000244
1087.023536	701.2000122
1087.585428	701.5999756
1088.147262	701.4000244
1088.709039	700.4000244
1089.270758	703.7999878
1089.83242	705.5999756
1090.394024	702.7999878
1090.955571	699.7999878
1091.517061	698.0
1092.078493	702.0
1092.639868	707.2000122
1093.201185	702.7999878
1093.762445	700.7999878
1094.323648	701.2000122
1094.884793	706.2000122
1095.445881	700.4000244
1096.006911	700.5999756
1096.567884	701.4000244
1097.1288	708.7999878
1097.689659	696.5999756
1098.25046	701.5999756
1098.811203	700.4000244
1099.37189	701.7999878
1099.932518	704.4000244
1100.49309	704.4000244
1101.053604	704.4000244
1101.614061	705.2000122
1102.174461	700.4000244
1102.734803	701.4000244
1103.295088	700.0
1103.855316	702.0
1104.415486	701.0
1104.975599	700.4000244
1105.535655	702.5999756
1106.095653	699.5999756
1106.655594	700.0
1107.215478	698.5999756
1107.775305	700.0
1108.335074	702.0
1108.894786	703.2000122
1109.45444	700.7999878
1110.014038	701.0
1110.573578	706.7999878
1111.133061	702.5999756
1111.692486	703.0
1112.251854	702.5999756
1112.811165	698.5999756
1113.370419	703.5999756
1113.929616	701.0
1114.488755	702.2000122
1115.047837	701.7999878
1115.606862	700.0
1116.16583	700.7999878
1116.72474	703.2000122
1117.283593	704.4000244
1117.842389	701.2000122
1118.401128	703.5999756
1118.959809	703.2000122
1119.518433	699.7999878
1120.077	701.2000122
1120.63551	702.4000244
1121.193963	699.0
1121.752358	702.0
1122.310697	700.4000244
1122.868978	702.0
1123.427202	702.0
1123.985368	700.0
1124.543478	701.5999756
1125.10153	701.0
1125.659526	704.4000244
1126.217464	703.2000122
1126.775345	702.7999878
1127.333168	704.2000122
1127.890935	704.4000244
1128.448644	700.0
1129.006297	702.0
1129.563892	700.4000244
1130.12143	703.2000122
1130.678911	704.5999756
1131.236335	704.4000244
1131.793701	704.2000122
1132.351011	702.2000122
1132.908263	701.7999878
1133.465458	700.2000122
1134.022597	702.0
1134.579678	699.2000122
1135.136702	700.7999878
1135.693669	702.0
1136.250578	702.0
1136.807431	700.7999878
1137.364227	698.0
1137.920965	702.2000122
1138.477647	705.7999878
1139.034271	703.5999756
1139.590839	701.2000122
1140.147349	703.0
1140.703802	702.2000122
1141.260198	703.5999756
1141.816537	703.0
1142.37282	702.0
1142.929045	701.4000244
1143.485213	705.0
1144.041323	705.4000244
1144.597377	703.2000122
1145.153374	701.5999756
1145.709314	702.7999878
1146.265197	704.0
1146.821023	701.5999756
1147.376792	703.2000122
1147.932503	703.0
1148.488158	702.2000122
1149.043756	699.5999756
1149.599297	700.4000244
1150.154781	702.4000244
1150.710207	702.4000244
1151.265577	703.4000244
1151.82089	701.0
1152.376146	702.4000244
1152.931345	698.2000122
1153.486487	701.2000122
1154.041572	704.4000244
1154.5966	704.5999756
1155.151571	703.2000122
1155.706485	700.2000122
1156.261342	704.0
1156.816142	705.0
1157.370885	701.5999756
1157.925572	699.4000244
1158.480201	703.2000122
1159.034774	705.5999756
1159.589289	704.7999878
1160.143748	705.0
1160.698149	708.2000122
1161.252494	704.2000122
1161.806782	706.7999878
1162.361013	704.5999756
1162.915187	706.7999878
1163.469304	703.2000122
1164.023364	704.2000122
1164.577368	699.0
1165.131314	705.5999756
1165.685204	702.2000122
1166.239036	702.4000244
1166.792812	702.4000244
1167.346531	704.0
1167.900193	706.0
1168.453798	699.0
1169.007347	704.2000122
1169.560838	707.5999756
1170.114273	702.5999756
1170.66765	702.2000122
1171.220971	698.7999878
1171.774235	702.4000244
1172.327443	705.7999878
1172.880593	705.2000122
1173.433687	698.2000122
1173.986723	706.4000244
1174.539703	702.7999878
1175.092626	700.2000122
1175.645493	700.4000244
1176.198302	700.5999756
1176.751055	700.7999878
1177.303751	701.2000122
1177.85639	701.4000244
1178.408972	704.0
1178.961498	704.5999756
1179.513966	702.7999878
1180.066378	703.7999878
1180.618733	703.4000244
1181.171032	701.2000122
1181.723273	702.0
1182.275458	699.7999878
1182.827586	702.7999878
1183.379657	702.2000122
1183.931672	700.2000122
1184.48363	706.2000122
1185.035531	701.5999756
1185.587375	699.2000122
1186.139162	700.7999878
1186.690893	703.2000122
1187.242567	701.5999756
1187.794184	704.5999756
1188.345745	701.2000122
1188.897249	703.5999756
1189.448696	701.5999756
1190.000086	699.0
1190.55142	700.0
1191.102697	699.5999756
1191.653918	701.5999756
1192.205081	703.2000122
1192.756188	702.4000244
1193.307238	717.2000122
1193.858232	704.7999878
1194.409169	702.7999878
1194.960049	703.4000244
1195.510872	707.5999756
1196.061639	702.0
1196.612349	699.0
1197.163003	701.0
1197.713599	703.2000122
1198.264139	706.4000244
1198.814623	703.7999878
1199.36505	701.0
1199.91542	699.7999878
1200.465734	705.2000122
1201.01599	704.5999756
1201.566191	701.2000122
1202.116334	698.2000122
1202.666421	703.7999878
1203.216452	698.5999756
1203.766425	701.5999756
1204.316343	706.2000122
1204.866203	702.4000244
1205.416007	706.2000122
1205.965754	701.0
1206.515445	705.2000122
1207.065079	704.5999756
1207.614657	704.7999878
1208.164177	704.5999756
1208.713642	701.4000244
1209.26305	703.4000244
1209.812401	701.2000122
1210.361695	706.0
1210.910933	705.5999756
1211.460115	703.5999756
1212.00924	705.7999878
1212.558308	703.0
1213.10732	705.7999878
1213.656275	697.4000244
1214.205174	703.4000244
1214.754016	703.7999878
1215.302801	705.4000244
1215.85153	707.7999878
1216.400203	705.5999756
1216.948819	703.4000244
1217.497378	700.7999878
1218.045881	702.2000122
1218.594327	703.2000122
1219.142717	706.7999878
1219.691051	699.5999756
1220.239327	701.4000244
1220.787548	705.0
1221.335712	703.5999756
1221.883819	705.5999756
1222.43187	702.0
1222.979864	702.0
1223.527802	705.2000122
1224.075683	703.5999756
1224.623508	705.4000244
1225.171277	702.7999878
1225.718989	703.2000122
1226.266644	700.7999878
1226.814243	707.5999756
1227.361786	704.0
1227.909272	703.5999756
1228.456702	703.0
1229.004075	704.2000122
1229.551392	701.4000244
1230.098652	704.7999878
1230.645856	703.0
1231.193003	702.2000122
1231.740094	706.5999756
1232.287129	700.4000244
1232.834107	700.7999878
1233.381029	701.5999756
1233.927894	703.2000122
1234.474703	701.7999878
1235.021455	702.2000122
1235.568151	702.7999878
1236.114791	705.4000244
1236.661374	697.4000244
1237.207901	700.0
1237.754372	699.4000244
1238.300786	701.0
1238.847144	698.7999878
1239.393445	702.5999756
1239.93969	702.4000244
1240.485879	702.5999756
1241.032011	698.0
1241.578087	698.0
1242.124106	700.4000244
1242.67007	699.7999878
1243.215976	698.4000244
1243.761827	701.0
1244.307621	704.2000122
1244.853359	703.0
1245.39904	703.0
1245.944665	703.0
1246.490234	702.2000122
1247.035746	700.4000244
1247.581203	702.2000122
1248.126602	704.0
1248.671946	704.5999756
1249.217233	701.0
1249.762464	702.2000122
1250.307638	702.4000244
1250.852757	701.5999756
1251.397819	699.0
1251.942824	701.4000244
1252.487774	697.0
1253.032667	700.2000122
1253.577503	702.7999878
1254.122284	697.2000122
1254.667008	700.0
1255.211676	702.0
1255.756288	697.5999756
1256.300843	699.0
1256.845342	704.2000122
1257.389785	704.0
1257.934172	700.7999878
1258.478502	702.0
1259.022776	699.7999878
1259.566994	697.4000244
1260.111156	713.7999878
1260.655261	701.2000122
1261.199311	698.5999756
1261.743304	698.2000122
1262.28724	704.7999878
1262.831121	700.5999756
1263.374945	700.5999756
1263.918713	697.5999756
1264.462425	697.2000122
1265.006081	698.2000122
1265.54968	701.7999878
1266.093223	701.4000244
1266.636711	703.5999756
1267.180141	698.7999878
1267.723516	700.2000122
1268.266835	699.0
1268.810097	702.7999878
1269.353303	702.5999756
1269.896453	699.0
1270.439547	701.0
1270.982584	698.0
1271.525566	702.2000122
1272.068491	700.7999878
1272.61136	699.5999756
1273.154173	701.0
1273.69693	702.5999756
1274.239631	702.7999878
1274.782275	702.7999878
1275.324864	701.5999756
1275.867396	697.2000122
1276.409872	701.4000244
1276.952292	697.4000244
1277.494656	700.7999878
1278.036964	702.0
1278.579215	695.4000244
1279.121411	697.4000244
1279.66355	697.2000122
1280.205634	699.4000244
1280.747661	698.0
1281.289632	697.5999756
1281.831547	698.0
1282.373406	699.0
1282.915209	695.2000122
1283.456955	696.5999756
1283.998646	699.2000122
1284.540281	701.7999878
1285.081859	701.0
1285.623381	698.2000122
1286.164848	725.0
1286.706258	750.5999756
1287.247612	711.7999878
1287.788911	701.7999878
1288.330153	698.4000244
1288.871339	698.0
1289.412469	701.2000122
1289.953543	696.7999878
1290.494561	697.4000244
1291.035523	698.7999878
1291.576428	697.4000244
1292.117278	694.2000122
1292.658072	698.0
1293.19881	701.0
1293.739492	701.2000122
1294.280118	696.5999756
1294.820687	696.4000244
1295.361201	701.7999878
1295.901659	695.7999878
1296.442061	696.5999756
1296.982406	696.7999878
1297.522696	697.0
1298.06293	699.0
1298.603108	696.0
1299.143229	698.7999878
1299.683295	698.5999756
1300.223305	699.0
1300.763259	699.5999756
1301.303157	700.2000122
1301.842999	698.0
1302.382785	697.7999878
1302.922515	696.7999878
1303.462189	698.4000244
1304.001807	694.5999756
1304.541369	698.2000122
1305.080875	700.4000244
1305.620326	697.4000244
1306.15972	699.2000122
1306.699058	699.4000244
1307.238341	699.0
1307.777567	699.7999878
1308.316738	696.0
1308.855853	698.5999756
1309.394912	695.0
1309.933915	699.2000122
1310.472862	700.0
1311.011753	698.4000244
1311.550588	697.4000244
1312.089367	699.2000122
1312.62809	697.2000122
1313.166758	700.2000122
1313.70537	696.7999878
1314.243925	699.7999878
1314.782425	696.4000244
1315.320869	698.7999878
1315.859257	700.4000244
1316.397589	698.2000122
1316.935866	695.5999756
1317.474086	697.7999878
1318.012251	698.2000122
1318.55036	698.5999756
1319.088413	698.4000244
1319.62641	697.7999878
1320.164351	702.4000244
1320.702236	698.4000244
1321.240066	699.7999878
1321.777839	694.4000244
1322.315557	700.2000122
1322.853219	696.4000244
1323.390826	699.4000244
1323.928376	704.0
1324.465871	698.4000244
1325.003309	699.5999756
1325.540692	699.7999878
1326.07802	699.5999756
1326.615291	698.5999756
1327.152506	697.7999878
1327.689666	695.4000244
1328.22677	699.2000122
1328.763818	695.5999756
1329.300811	697.7999878
1329.837747	699.0
1330.374628	701.4000244
1330.911453	697.2000122
1331.448222	697.0
1331.984936	699.0
1332.521594	698.4000244
1333.058196	697.4000244
1333.594742	699.4000244
1334.131232	696.0
1334.667667	696.0
1335.204046	699.4000244
1335.740369	699.0
1336.276637	697.2000122
1336.812848	700.4000244
1337.349004	699.5999756
1337.885105	695.7999878
1338.421149	701.4000244
1338.957138	700.2000122
1339.493071	699.7999878
1340.028949	704.4000244
1340.56477	703.7999878
1341.100536	700.4000244
1341.636246	696.4000244
1342.171901	696.2000122
1342.7075	699.4000244
1343.243043	698.2000122
1343.77853	702.5999756
1344.313962	701.4000244
1344.849338	700.2000122
1345.384659	698.7999878
1345.919923	699.7999878
1346.455133	697.5999756
1346.990286	697.7999878
1347.525384	699.4000244
1348.060426	698.4000244
1348.595412	699.2000122
1349.130343	698.2000122
1349.665218	700.0
1350.200037	698.4000244
1350.734801	701.7999878
1351.269509	699.4000244
1351.804162	695.2000122
1352.338758	697.7999878
1352.8733	698.4000244
1353.407785	694.5999756
1353.942215	695.7999878
1354.476589	703.2000122
1355.010908	701.4000244
1355.545171	698.7999878
1356.079379	702.7999878
1356.61353	692.7999878
1357.147627	699.4000244
1357.681667	698.7999878
1358.215652	698.7999878
1358.749582	698.5999756
1359.283456	697.7999878
1359.817274	699.0
1360.351037	699.7999878
1360.884744	697.2000122
1361.418395	696.0
1361.951991	694.7999878
1362.485531	696.7999878
1363.019016	701.7999878
1363.552445	699.4000244
1364.085819	700.0
1364.619137	698.0
1365.1524	701.5999756
1365.685607	699.5999756
1366.218758	698.5999756
1366.751854	697.7999878
1367.284894	699.2000122
1367.817879	701.4000244
1368.350808	700.7999878
1368.883682	699.5999756
1369.4165	698.4000244
1369.949263	698.7999878
1370.48197	699.4000244
1371.014622	699.0
1371.547218	698.2000122
1372.079758	699.2000122
1372.612244	697.7999878
1373.144673	703.7999878
1373.677047	698.2000122
1374.209366	693.0
1374.741629	697.5999756
1375.273836	695.7999878
1375.805989	702.5999756
1376.338085	699.2000122
1376.870126	698.0
1377.402112	694.5999756
1377.934042	698.0
1378.465917	699.2000122
1378.997736	703.2000122
1379.5295	697.7999878
1380.061208	696.2000122
1380.592861	699.2000122
1381.124459	697.2000122
1381.656	700.2000122
1382.187487	699.4000244
1382.718918	694.4000244
1383.250294	700.4000244
1383.781614	698.2000122
1384.312879	700.7999878
1384.844088	700.7999878
1385.375242	697.5999756
1385.90634	699.2000122
1386.437383	696.0
1386.968371	701.4000244
1387.499303	701.0
1388.03018	699.2000122
1388.561001	700.0
1389.091767	724.5999756
1389.622478	784.2000122
1390.153133	723.4000244
1390.683733	698.2000122
1391.214277	698.4000244
1391.744766	699.0
1392.2752	699.5999756
1392.805578	696.5999756
1393.335901	697.0
1393.866168	700.2000122
1394.396381	697.4000244
1394.926537	697.2000122
1395.456639	698.0
1395.986685	698.0
1396.516675	696.7999878
1397.046611	697.0
1397.576491	694.7999878
1398.106315	701.7999878
1398.636084	694.7999878
1399.165798	700.2000122
1399.695457	697.2000122
1400.22506	698.2000122
1400.754608	693.7999878
1401.284101	697.5999756
1401.813538	695.4000244
1402.34292	698.2000122
1402.872247	698.7999878
1403.401518	698.5999756
1403.930734	698.2000122
1404.459895	701.5999756
1404.989	700.0
1405.51805	697.7999878
1406.047045	697.7999878
1406.575984	700.5999756
1407.104869	699.5999756
1407.633697	694.5999756
1408.162471	698.0
1408.691189	697.4000244
1409.219852	701.0
1409.74846	700.4000244
1410.277013	695.7999878
1410.80551	706.5999756
1411.333952	701.2000122
1411.862339	701.2000122
1412.39067	697.2000122
1412.918946	699.5999756
1413.447167	700.0
1413.975333	694.4000244
1414.503444	699.5999756
1415.031499	696.0
1415.559499	708.5999756
1416.087444	697.5999756
1416.615333	697.7999878
1417.143167	699.0
1417.670947	697.4000244
1418.19867	699.0
1418.726339	698.2000122
1419.253952	697.5999756
1419.781511	701.4000244
1420.309014	705.0
1420.836461	701.0
1421.363854	698.5999756
1421.891191	701.4000244
1422.418474	702.0
1422.945701	699.0
1423.472872	699.2000122
1423.999989	701.0
1424.52705	698.4000244
1425.054057	700.7999878
1425.581008	700.0
1426.107904	697.2000122
1426.634745	697.0
1427.16153	693.4000244
1427.688261	696.4000244
1428.214936	701.5999756
1428.741556	699.2000122
1429.268121	701.0
1429.794631	700.4000244
1430.321085	700.7999878
1430.847485	699.5999756
1431.373829	698.4000244
1431.900118	699.5999756
1432.426353	701.2000122
1432.952532	695.2000122
1433.478655	698.0
1434.004724	700.0
1434.530738	699.5999756
1435.056696	698.7999878
1435.5826	697.7999878
1436.108448	700.7999878
1436.634241	698.4000244
1437.159979	699.0
1437.685662	698.7999878
1438.21129	698.0
1438.736863	699.7999878
1439.262381	698.0
1439.787843	696.5999756
1440.313251	700.0
1440.838603	695.2000122
1441.3639	699.4000244
1441.889143	695.7999878
1442.41433	697.0
1442.939462	698.0
1443.464539	696.2000122
1443.989561	700.0
1444.514528	698.5999756
1445.03944	699.7999878
1445.564297	699.2000122
1446.089099	698.5999756
1446.613846	703.0
1447.138537	700.2000122
1447.663174	699.5999756
1448.187756	700.0
1448.712282	697.4000244
1449.236754	698.7999878
1449.761171	699.2000122
1450.285532	704.4000244
1450.809839	700.2000122
1451.33409	697.4000244
1451.858287	694.4000244
1452.382428	700.0
1452.906515	702.2000122
1453.430546	697.7999878
1453.954523	700.7999878
1454.478444	695.5999756
1455.002311	697.0
1455.526123	702.2000122
1456.049879	695.0
1456.573581	704.2000122
1457.097227	696.7999878
1457.620819	697.7999878
1458.144356	699.2000122
1458.667837	696.5999756
1459.191264	697.4000244
1459.714636	696.5999756
1460.237952	701.0
1460.761214	696.0
1461.284421	697.0
1461.807573	700.0
1462.33067	696.5999756
1462.853712	700.7999878
1463.376699	700.5999756
1463.899632	698.2000122
1464.422509	699.4000244
1464.945331	700.0
1465.468099	698.2000122
1465.990811	698.7999878
1466.513469	697.0
1467.036071	703.4000244
1467.558619	696.7999878
1468.081112	698.7999878
1468.60355	695.2000122
1469.125933	698.4000244
1469.648261	696.5999756
1470.170534	696.2000122
1470.692752	698.0
1471.214916	697.7999878
1471.737024	698.0
1472.259078	698.2000122
1472.781077	694.5999756
1473.303021	698.5999756
1473.82491	697.5999756
1474.346744	701.4000244
1474.868523	700.5999756
1475.390248	696.4000244
1475.911917	698.4000244
1476.433532	698.5999756
1476.955092	701.0
1477.476597	698.0
1477.998047	695.5999756
1478.519442	696.7999878
1479.040783	697.0
1479.562068	699.4000244
1480.083299	697.5999756
1480.604475	699.2000122
1481.125596	702.7999878
1481.646663	699.2000122
1482.167674	701.5999756
1482.688631	700.4000244
1483.209533	696.5999756
1483.73038	699.0
1484.251172	703.5999756
1484.771909	695.7999878
1485.292592	695.2000122
1485.81322	702.7999878
1486.333793	699.2000122
1486.854311	699.2000122
1487.374775	699.0
1487.895183	699.7999878
1488.415537	696.0
1488.935836	702.4000244
1489.456081	700.5999756
1489.97627	698.0
1490.496405	695.5999756
1491.016485	698.0
1491.536511	695.2000122
1492.056481	700.2000122
1492.576397	701.4000244
1493.096258	697.2000122
1493.616064	695.7999878
1494.135816	698.5999756
1494.655513	698.7999878
1495.175155	698.7999878
1495.694742	697.2000122
1496.214274	694.7999878
1496.733752	698.5999756
1497.253175	700.7999878
1497.772544	699.7999878
1498.291858	698.0
1498.811116	697.0
1499.330321	700.7999878
1499.84947	704.2000122
1500.368565	699.7999878
1500.887605	698.7999878
1501.406591	696.2000122
1501.925521	695.2000122
1502.444397	696.5999756
1502.963219	698.7999878
1503.481985	695.0
1504.000697	698.0
1504.519355	695.0
1505.037957	697.5999756
1505.556505	698.4000244
1506.074999	695.5999756
1506.593437	696.4000244
1507.111821	694.5999756
1507.63015	699.4000244
1508.148425	695.4000244
1508.666645	696.0
1509.18481	696.4000244
1509.702921	696.4000244
1510.220977	700.2000122
1510.738979	700.0
1511.256925	700.4000244
1511.774817	697.4000244
1512.292655	699.0
1512.810438	699.4000244
1513.328166	699.0
1513.84584	701.2000122
1514.363459	693.7999878
1514.881023	699.2000122
1515.398533	692.2000122
1515.915988	696.0
1516.433389	700.2000122
1516.950734	697.0
1517.468026	700.7999878
1517.985263	698.0
1518.502445	693.2000122
1519.019572	698.7999878
1519.536645	700.4000244
1520.053664	696.2000122
1520.570628	700.5999756
1521.087537	693.2000122
1521.604392	697.0
1522.121192	698.5999756
1522.637937	695.7999878
1523.154628	695.5999756
1523.671265	697.0
1524.187847	697.5999756
1524.704374	698.7999878
1525.220847	697.7999878
1525.737265	696.4000244
1526.253629	699.0
1526.769938	698.5999756
1527.286192	699.7999878
1527.802392	698.4000244
1528.318538	697.5999756
1528.834629	697.2000122
1529.350666	699.5999756
1529.866648	697.4000244
1530.382575	699.0
1530.898448	696.7999878
1531.414266	698.0
1531.93003	699.5999756
1532.44574	692.7999878
1532.961395	698.7999878
1533.476995	700.4000244
1533.992541	698.7999878
1534.508033	699.2000122
1535.02347	698.7999878
1535.538852	696.4000244
1536.05418	698.0
1536.569454	698.0
1537.084673	697.7999878
1537.599837	696.4000244
1538.114947	695.7999878
1538.630003	697.7999878
1539.145004	696.4000244
1539.659951	702.4000244
1540.174843	691.7999878
1540.689681	700.2000122
1541.204465	700.4000244
1541.719194	700.0
1542.233868	702.7999878
1542.748488	700.2000122
1543.263054	699.5999756
1543.777565	696.4000244
1544.292022	697.2000122
1544.806424	693.7999878
1545.320772	698.7999878
1545.835066	694.7999878
1546.349305	696.7999878
1546.863489	697.7999878
1547.37762	699.0
1547.891696	694.2000122
1548.405717	700.2000122
1548.919684	694.4000244
1549.433597	696.5999756
1549.947455	698.0
1550.461259	694.0
1550.975009	696.0
1551.488704	693.2000122
1552.002345	695.5999756
1552.515931	697.0
1553.029463	696.0
1553.542941	696.4000244
1554.056364	695.2000122
1554.569733	697.7999878
1555.083048	699.4000244
1555.596308	698.5999756
1556.109514	695.4000244
1556.622665	698.0
1557.135762	697.5999756
1557.648805	698.2000122
1558.161794	698.0
1558.674728	697.2000122
1559.187608	697.7999878
1559.700433	695.0
1560.213205	696.4000244
1560.725921	698.5999756
1561.238584	697.4000244
1561.751192	696.5999756
1562.263746	698.2000122
1562.776246	702.4000244
1563.288691	698.2000122
1563.801082	696.4000244
1564.313419	697.5999756
1564.825701	695.7999878
1565.337929	696.5999756
1565.850103	700.0
1566.362223	700.4000244
1566.874288	698.2000122
1567.386299	694.0
1567.898256	696.7999878
1568.410158	700.5999756
1568.922007	693.4000244
1569.4338	699.2000122
1569.94554	696.0
1570.457226	702.7999878
1570.968857	700.7999878
1571.480434	694.2000122
1571.991956	694.7999878
1572.503425	696.7999878
1573.014839	695.4000244
1573.526199	698.5999756
1574.037505	696.5999756
1574.548756	701.5999756
1575.059953	698.0
1575.571096	697.2000122
1576.082185	698.7999878
1576.59322	694.4000244
1577.1042	693.5999756
1577.615126	694.2000122
1578.125998	699.7999878
1578.636816	696.4000244
1579.14758	698.0
1579.658289	698.4000244
1580.168944	693.4000244
1580.679545	692.7999878
1581.190092	695.4000244
1581.700585	699.5999756
1582.211023	695.2000122
1582.721407	696.2000122
1583.231737	696.0
1583.742013	701.4000244
1584.252235	697.4000244
1584.762403	700.2000122
1585.272516	698.4000244
1585.782575	695.7999878
1586.292581	701.4000244
1586.802532	697.7999878
1587.312428	693.5999756
1587.822271	696.4000244
1588.33206	700.7999878
1588.841794	698.7999878
1589.351474	696.5999756
1589.8611	696.2000122
1590.370672	695.5999756
1590.88019	698.7999878
1591.389654	692.2000122
1591.899064	703.4000244
1592.408419	695.4000244
