1042.452273	732.0
1043.018714	730.2000122
1043.585098	724.0
1044.151424	727.0
1044.717692	726.0
1045.283903	725.0
1045.850056	725.5999756
1046.416151	726.4000244
1046.982188	725.4000244
1047.548167	723.0
1048.114089	722.5999756
1048.679953	724.7999878
1049.24576	722.0
1049.811509	722.5999756
1050.3772	721.2000122
1050.942833	720.2000122
1051.508408	718.7999878
1052.073926	722.5999756
1052.639387	720.5999756
1053.204789	723.5999756
1053.770134	723.2000122
1054.335421	721.5999756
1054.900651	718.5999756
1055.465823	724.7999878
1056.030937	725.2000122
1056.595993	718.5999756
1057.160992	718.0
1057.725934	719.7999878
1058.290817	723.5999756
1058.855643	720.0
1059.420411	722.4000244
1059.985122	718.2000122
1060.549775	724.4000244
1061.114371	723.0
1061.678908	720.0
1062.243389	717.0
1062.807811	722.0
1063.372176	717.5999756
1063.936483	725.0
1064.500733	721.5999756
1065.064925	718.5999756
1065.62906	723.4000244
1066.193137	717.7999878
1066.757156	718.2000122
1067.321118	721.4000244
1067.885022	715.7999878
1068.448869	718.0
1069.012658	717.4000244
1069.57639	720.5999756
1070.140063	725.2000122
1070.70368	717.5999756
1071.267239	725.2000122
1071.83074	721.2000122
1072.394184	717.2000122
1072.95757	723.4000244
1073.520899	720.0
1074.08417	723.0
1074.647383	720.5999756
1075.21054	719.7999878
1075.773638	720.4000244
1076.336679	720.0
1076.899663	716.5999756
1077.462589	721.7999878
1078.025457	721.4000244
1078.588268	718.7999878
1079.151022	715.7999878
1079.713718	720.7999878
1080.276356	722.2000122
1080.838937	720.0
1081.401461	719.2000122
1081.963927	726.7999878
1082.526336	719.5999756
1083.088687	717.5999756
1083.650981	720.2000122
1084.213217	719.5999756
1084.775396	720.0
1085.337517	720.7999878
1085.899581	719.7999878
1086.461587	719.7999878
1087.023536	715.2000122
1087.585428	716.7999878
1088.147262	715.7999878
1088.709039	720.2000122
1089.270758	721.2000122
1089.83242	723.7999878
1090.394024	718.5999756
1090.955571	720.7999878
1091.517061	721.2000122
1092.078493	717.4000244
1092.639868	723.7999878
1093.201185	718.0
1093.762445	716.4000244
1094.323648	720.2000122
1094.884793	722.4000244
1095.445881	724.0
1096.006911	723.7999878
1096.567884	719.2000122
1097.1288	729.5999756
1097.689659	719.0
1098.25046	721.4000244
1098.811203	723.5999756
1099.37189	722.7999878
1099.932518	720.0
1100.49309	719.7999878
1101.053604	725.0
1101.614061	718.7999878
1102.174461	721.4000244
1102.734803	725.2000122
1103.295088	724.5999756
1103.855316	721.4000244
1104.415486	716.5999756
1104.975599	718.4000244
1105.535655	719.2000122
1106.095653	725.7999878
1106.655594	721.7999878
1107.215478	715.7999878
1107.775305	718.0
1108.335074	720.7999878
1108.894786	723.0
1109.45444	720.7999878
1110.014038	724.2000122
1110.573578	717.4000244
1111.133061	719.7999878
1111.692486	719.5999756
1112.251854	723.5999756
1112.811165	722.5999756
1113.370419	717.0
1113.929616	717.5999756
1114.488755	721.5999756
1115.047837	718.4000244
1115.606862	718.7999878
1116.16583	722.4000244
1116.72474	720.2000122
1117.283593	718.5999756
1117.842389	723.4000244
1118.401128	726.5999756
1118.959809	719.0
1119.518433	722.4000244
1120.077	721.4000244
1120.63551	724.5999756
1121.193963	721.5999756
1121.752358	721.7999878
1122.310697	723.0
1122.868978	721.0
1123.427202	719.7999878
1123.985368	721.5999756
1124.543478	718.5999756
1125.10153	726.7999878
1125.659526	720.5999756
1126.217464	720.0
1126.775345	720.7999878
1127.333168	718.2000122
1127.890935	724.2000122
1128.448644	718.5999756
1129.006297	721.7999878
1129.563892	721.4000244
1130.12143	717.7999878
1130.678911	719.7999878
1131.236335	725.0
1131.793701	721.4000244
1132.351011	722.7999878
1132.908263	722.2000122
1133.465458	721.0
1134.022597	721.5999756
1134.579678	723.7999878
1135.136702	722.7999878
1135.693669	715.0
1136.250578	724.4000244
1136.807431	719.0
1137.364227	719.4000244
1137.920965	720.2000122
1138.477647	718.2000122
1139.034271	720.2000122
1139.590839	721.7999878
1140.147349	721.4000244
1140.703802	723.7999878
1141.260198	720.0
1141.816537	723.7999878
1142.37282	714.5999756
1142.929045	720.0
1143.485213	721.4000244
1144.041323	720.5999756
1144.597377	720.2000122
1145.153374	723.4000244
1145.709314	718.2000122
1146.265197	724.5999756
1146.821023	719.4000244
1147.376792	719.0
1147.932503	722.2000122
1148.488158	725.7999878
1149.043756	725.5999756
1149.599297	724.2000122
1150.154781	723.2000122
1150.710207	722.0
1151.265577	723.7999878
1151.82089	722.5999756
1152.376146	720.4000244
1152.931345	718.4000244
1153.486487	722.4000244
1154.041572	726.0
1154.5966	718.4000244
1155.151571	720.5999756
1155.706485	718.0
1156.261342	724.5999756
1156.816142	721.4000244
1157.370885	720.0
1157.925572	719.4000244
1158.480201	724.2000122
1159.034774	723.5999756
1159.589289	721.4000244
1160.143748	722.0
1160.698149	721.2000122
1161.252494	719.5999756
1161.806782	719.5999756
1162.361013	721.0
1162.915187	722.5999756
1163.469304	721.5999756
1164.023364	716.7999878
1164.577368	721.0
1165.131314	721.0
1165.685204	721.7999878
1166.239036	718.2000122
1166.792812	724.2000122
1167.346531	724.2000122
1167.900193	719.0
1168.453798	714.4000244
1169.007347	717.0
1169.560838	721.5999756
1170.114273	726.4000244
1170.66765	722.0
1171.220971	724.2000122
1171.774235	719.4000244
1172.327443	717.2000122
1172.880593	722.2000122
1173.433687	720.5999756
1173.986723	719.2000122
1174.539703	716.5999756
1175.092626	719.0
1175.645493	723.2000122
1176.198302	717.2000122
1176.751055	723.2000122
1177.303751	723.5999756
1177.85639	724.2000122
1178.408972	714.5999756
1178.961498	722.7999878
1179.513966	715.4000244
1180.066378	718.7999878
1180.618733	722.2000122
1181.171032	724.2000122
1181.723273	725.4000244
1182.275458	721.0
1182.827586	720.7999878
1183.379657	722.0
1183.931672	721.4000244
1184.48363	721.0
1185.035531	719.5999756
1185.587375	722.4000244
1186.139162	719.4000244
1186.690893	723.0
1187.242567	716.7999878
1187.794184	723.0
1188.345745	722.2000122
1188.897249	719.0
1189.448696	723.4000244
1190.000086	721.2000122
1190.55142	717.4000244
1191.102697	717.2000122
1191.653918	718.2000122
1192.205081	719.0
1192.756188	722.4000244
1193.307238	734.2000122
1193.858232	717.0
1194.409169	715.7999878
1194.960049	719.7999878
1195.510872	721.4000244
1196.061639	721.4000244
1196.612349	720.5999756
1197.163003	717.0
1197.713599	721.2000122
1198.264139	723.4000244
1198.814623	722.4000244
1199.36505	719.0
1199.91542	717.2000122
1200.465734	716.4000244
1201.01599	719.5999756
1201.566191	725.2000122
1202.116334	717.0
1202.666421	719.5999756
1203.216452	719.5999756
1203.766425	720.4000244
1204.316343	723.4000244
1204.866203	720.7999878
1205.416007	717.5999756
1205.965754	721.4000244
1206.515445	717.0
1207.065079	718.2000122
1207.614657	723.4000244
1208.164177	718.5999756
1208.713642	719.2000122
1209.26305	718.7999878
1209.812401	724.5999756
1210.361695	725.5999756
1210.910933	716.7999878
1211.460115	721.0
1212.00924	721.0
1212.558308	717.4000244
1213.10732	716.0
1213.656275	719.4000244
1214.205174	721.7999878
1214.754016	721.2000122
1215.302801	718.5999756
1215.85153	721.2000122
1216.400203	724.4000244
1216.948819	718.0
1217.497378	718.4000244
1218.045881	719.4000244
1218.594327	719.4000244
1219.142717	717.5999756
1219.691051	717.5999756
1220.239327	720.0
1220.787548	719.2000122
1221.335712	721.0
1221.883819	716.5999756
1222.43187	726.0
1222.979864	720.4000244
1223.527802	720.0
1224.075683	718.2000122
1224.623508	719.4000244
1225.171277	718.0
1225.718989	718.7999878
1226.266644	717.4000244
1226.814243	718.7999878
1227.361786	721.4000244
1227.909272	719.2000122
1228.456702	719.5999756
1229.004075	718.0
1229.551392	718.5999756
1230.098652	722.2000122
1230.645856	717.0
1231.193003	719.2000122
1231.740094	718.4000244
1232.287129	718.7999878
1232.834107	718.7999878
1233.381029	723.0
1233.927894	716.7999878
1234.474703	719.4000244
1235.021455	717.4000244
1235.568151	719.5999756
1236.114791	715.0
1236.661374	715.2000122
1237.207901	716.5999756
1237.754372	721.7999878
1238.300786	716.2000122
1238.847144	714.0
1239.393445	720.2000122
1239.93969	720.0
1240.485879	721.2000122
1241.032011	719.4000244
1241.578087	720.7999878
1242.124106	719.0
1242.67007	717.7999878
1243.215976	716.0
1243.761827	720.5999756
1244.307621	716.7999878
1244.853359	720.2000122
1245.39904	717.4000244
1245.944665	720.4000244
1246.490234	717.0
1247.035746	718.2000122
1247.581203	717.5999756
1248.126602	716.7999878
1248.671946	720.4000244
1249.217233	715.0
1249.762464	720.2000122
1250.307638	718.5999756
1250.852757	721.7999878
1251.397819	723.4000244
1251.942824	720.2000122
1252.487774	717.5999756
1253.032667	718.0
1253.577503	714.5999756
1254.122284	716.0
1254.667008	717.7999878
1255.211676	717.0
1255.756288	714.4000244
1256.300843	713.5999756
1256.845342	720.4000244
1257.389785	717.4000244
1257.934172	716.5999756
1258.478502	720.4000244
1259.022776	715.5999756
1259.566994	717.0
1260.111156	731.0
1260.655261	720.2000122
1261.199311	720.0
1261.743304	718.4000244
1262.28724	716.7999878
1262.831121	714.2000122
1263.374945	715.2000122
1263.918713	720.5999756
1264.462425	716.5999756
1265.006081	715.7999878
1265.54968	718.0
1266.093223	719.7999878
1266.636711	720.7999878
1267.180141	714.5999756
1267.723516	715.4000244
1268.266835	720.4000244
1268.810097	717.4000244
1269.353303	719.2000122
1269.896453	712.5999756
1270.439547	718.2000122
1270.982584	715.0
1271.525566	714.7999878
1272.068491	721.0
1272.61136	715.7999878
1273.154173	716.7999878
1273.69693	719.4000244
1274.239631	717.2000122
1274.782275	714.5999756
1275.324864	719.0
1275.867396	715.7999878
1276.409872	714.4000244
1276.952292	713.4000244
1277.494656	714.2000122
1278.036964	722.2000122
1278.579215	717.5999756
1279.121411	714.5999756
1279.66355	715.4000244
1280.205634	721.2000122
1280.747661	711.4000244
1281.289632	715.2000122
1281.831547	718.0
1282.373406	716.5999756
1282.915209	717.2000122
1283.456955	717.7999878
1283.998646	713.0
1284.540281	718.2000122
1285.081859	719.5999756
1285.623381	715.5999756
1286.164848	731.4000244
1286.706258	759.2000122
1287.247612	726.7999878
1287.788911	716.2000122
1288.330153	720.4000244
1288.871339	717.7999878
1289.412469	714.5999756
1289.953543	715.0
1290.494561	715.5999756
1291.035523	716.2000122
1291.576428	722.5999756
1292.117278	715.2000122
1292.658072	716.0
1293.19881	713.7999878
1293.739492	714.5999756
1294.280118	715.0
1294.820687	715.2000122
1295.361201	714.2000122
1295.901659	715.7999878
1296.442061	712.4000244
1296.982406	714.0
1297.522696	716.7999878
1298.06293	713.7999878
1298.603108	713.4000244
1299.143229	714.7999878
1299.683295	716.7999878
1300.223305	716.7999878
1300.763259	709.7999878
1301.303157	719.0
1301.842999	715.7999878
1302.382785	715.0
1302.922515	716.5999756
1303.462189	717.7999878
1304.001807	716.4000244
1304.541369	714.2000122
1305.080875	714.2000122
1305.620326	717.7999878
1306.15972	714.5999756
1306.699058	711.4000244
1307.238341	715.4000244
1307.777567	712.4000244
1308.316738	715.7999878
1308.855853	713.7999878
1309.394912	714.4000244
1309.933915	716.0
1310.472862	719.7999878
1311.011753	710.5999756
1311.550588	712.7999878
1312.089367	714.5999756
1312.62809	712.4000244
1313.166758	719.0
1313.70537	715.7999878
1314.243925	715.5999756
1314.782425	715.7999878
1315.320869	711.4000244
1315.859257	714.2000122
1316.397589	713.5999756
1316.935866	712.0
1317.474086	714.0
1318.012251	709.5999756
1318.55036	712.0
1319.088413	713.7999878
1319.62641	715.7999878
1320.164351	715.2000122
1320.702236	710.2000122
1321.240066	716.4000244
1321.777839	713.5999756
1322.315557	717.2000122
1322.853219	713.2000122
1323.390826	715.7999878
1323.928376	719.0
1324.465871	712.5999756
1325.003309	715.0
1325.540692	719.7999878
1326.07802	712.0
1326.615291	715.0
1327.152506	713.2000122
1327.689666	712.5999756
1328.22677	710.5999756
1328.763818	716.0
1329.300811	714.4000244
1329.837747	712.7999878
1330.374628	711.0
1330.911453	712.2000122
1331.448222	712.5999756
1331.984936	713.2000122
1332.521594	719.5999756
1333.058196	715.4000244
1333.594742	715.4000244
1334.131232	717.4000244
1334.667667	712.0
1335.204046	720.2000122
1335.740369	712.4000244
1336.276637	717.0
1336.812848	715.4000244
1337.349004	714.2000122
1337.885105	716.7999878
1338.421149	713.7999878
1338.957138	716.2000122
1339.493071	715.7999878
1340.028949	712.5999756
1340.56477	715.7999878
1341.100536	716.0
1341.636246	714.7999878
1342.171901	714.4000244
1342.7075	714.7999878
1343.243043	716.5999756
1343.77853	716.5999756
1344.313962	716.5999756
1344.849338	713.4000244
1345.384659	714.7999878
1345.919923	718.5999756
1346.455133	712.5999756
1346.990286	712.0
1347.525384	713.2000122
1348.060426	716.7999878
1348.595412	714.4000244
1349.130343	718.7999878
1349.665218	716.5999756
1350.200037	714.5999756
1350.734801	711.2000122
1351.269509	718.2000122
1351.804162	712.2000122
1352.338758	716.2000122
1352.8733	714.7999878
1353.407785	714.4000244
1353.942215	720.0
1354.476589	713.5999756
1355.010908	710.5999756
1355.545171	716.5999756
1356.079379	716.7999878
1356.61353	712.4000244
1357.147627	715.4000244
1357.681667	717.0
1358.215652	713.2000122
1358.749582	713.5999756
1359.283456	714.0
1359.817274	719.0
1360.351037	716.5999756
1360.884744	712.7999878
1361.418395	714.7999878
1361.951991	716.4000244
1362.485531	713.4000244
1363.019016	715.7999878
1363.552445	715.0
1364.085819	718.0
1364.619137	716.7999878
1365.1524	718.2000122
1365.685607	720.5999756
1366.218758	709.5999756
1366.751854	714.4000244
1367.284894	713.7999878
1367.817879	714.4000244
1368.350808	718.0
1368.883682	716.7999878
1369.4165	715.2000122
1369.949263	717.5999756
1370.48197	711.7999878
1371.014622	711.4000244
1371.547218	718.2000122
1372.079758	717.7999878
1372.612244	714.4000244
1373.144673	717.5999756
1373.677047	717.5999756
1374.209366	717.0
1374.741629	709.5999756
1375.273836	715.2000122
1375.805989	714.5999756
1376.338085	713.4000244
1376.870126	713.5999756
1377.402112	713.2000122
1377.934042	714.7999878
1378.465917	716.2000122
1378.997736	717.7999878
1379.5295	715.4000244
1380.061208	717.7999878
1380.592861	720.4000244
1381.124459	720.0
1381.656	711.0
1382.187487	715.2000122
1382.718918	712.4000244
1383.250294	714.0
1383.781614	713.0
1384.312879	715.5999756
1384.844088	714.5999756
1385.375242	715.0
1385.90634	711.4000244
1386.437383	711.5999756
1386.968371	716.4000244
1387.499303	715.2000122
1388.03018	711.0
1388.561001	713.0
1389.091767	731.7999878
1389.622478	767.0
1390.153133	730.7999878
1390.683733	711.4000244
1391.214277	718.5999756
1391.744766	713.0
1392.2752	713.2000122
1392.805578	716.4000244
1393.335901	713.0
1393.866168	715.5999756
1394.396381	711.5999756
1394.926537	715.5999756
1395.456639	714.4000244
1395.986685	715.2000122
1396.516675	713.5999756
1397.046611	712.0
1397.576491	711.4000244
1398.106315	713.5999756
1398.636084	712.4000244
1399.165798	715.4000244
1399.695457	709.5999756
1400.22506	713.4000244
1400.754608	711.7999878
1401.284101	707.5999756
1401.813538	717.2000122
1402.34292	712.7999878
1402.872247	713.4000244
1403.401518	714.7999878
1403.930734	712.4000244
1404.459895	713.2000122
1404.989	712.0
1405.51805	709.7999878
1406.047045	710.4000244
1406.575984	711.7999878
1407.104869	714.0
1407.633697	712.4000244
1408.162471	709.0
1408.691189	711.7999878
1409.219852	712.2000122
1409.74846	714.5999756
1410.277013	717.2000122
1410.80551	723.0
1411.333952	713.4000244
1411.862339	717.0
1412.39067	712.5999756
1412.918946	710.2000122
1413.447167	714.5999756
1413.975333	710.5999756
1414.503444	705.4000244
1415.031499	709.7999878
1415.559499	727.2000122
1416.087444	714.5999756
1416.615333	710.7999878
1417.143167	716.2000122
1417.670947	714.5999756
1418.19867	711.4000244
1418.726339	715.2000122
1419.253952	712.4000244
1419.781511	711.7999878
1420.309014	712.2000122
1420.836461	711.4000244
1421.363854	710.4000244
1421.891191	712.7999878
1422.418474	708.7999878
1422.945701	711.0
1423.472872	713.5999756
1423.999989	715.2000122
1424.52705	711.5999756
1425.054057	715.7999878
1425.581008	710.2000122
1426.107904	712.0
1426.634745	712.7999878
1427.16153	709.0
1427.688261	710.7999878
1428.214936	708.4000244
1428.741556	714.4000244
1429.268121	706.5999756
1429.794631	711.7999878
1430.321085	711.4000244
1430.847485	708.7999878
1431.373829	713.0
1431.900118	711.0
1432.426353	713.5999756
1432.952532	711.7999878
1433.478655	710.5999756
1434.004724	715.0
1434.530738	706.7999878
1435.056696	715.0
1435.5826	709.5999756
1436.108448	711.2000122
1436.634241	712.2000122
1437.159979	706.5999756
1437.685662	707.5999756
1438.21129	708.0
1438.736863	710.7999878
1439.262381	709.0
1439.787843	711.5999756
1440.313251	709.0
1440.838603	708.5999756
1441.3639	710.2000122
1441.889143	708.2000122
1442.41433	706.7999878
1442.939462	709.4000244
1443.464539	706.7999878
1443.989561	709.2000122
1444.514528	710.5999756
1445.03944	707.0
1445.564297	708.4000244
1446.089099	706.2000122
1446.613846	708.5999756
1447.138537	706.5999756
1447.663174	712.0
1448.187756	711.4000244
1448.712282	707.7999878
1449.236754	706.2000122
1449.761171	712.5999756
1450.285532	708.4000244
1450.809839	709.4000244
1451.33409	710.2000122
1451.858287	707.4000244
1452.382428	707.7999878
1452.906515	706.2000122
1453.430546	708.4000244
1453.954523	705.7999878
1454.478444	708.5999756
1455.002311	706.2000122
1455.526123	704.2000122
1456.049879	708.4000244
1456.573581	706.5999756
1457.097227	705.2000122
1457.620819	702.7999878
1458.144356	708.5999756
1458.667837	709.0
1459.191264	706.2000122
1459.714636	708.4000244
1460.237952	706.4000244
1460.761214	709.5999756
1461.284421	703.0
1461.807573	709.5999756
1462.33067	707.4000244
1462.853712	707.2000122
1463.376699	708.2000122
1463.899632	707.5999756
1464.422509	703.4000244
1464.945331	708.7999878
1465.468099	708.0
1465.990811	708.0
1466.513469	702.5999756
1467.036071	704.7999878
1467.558619	709.5999756
1468.081112	705.7999878
1468.60355	711.4000244
1469.125933	702.4000244
1469.648261	707.5999756
1470.170534	706.0
1470.692752	710.2000122
1471.214916	703.5999756
1471.737024	704.2000122
1472.259078	706.0
1472.781077	707.5999756
1473.303021	707.4000244
1473.82491	703.4000244
1474.346744	703.7999878
1474.868523	706.0
1475.390248	700.5999756
1475.911917	707.4000244
1476.433532	703.4000244
1476.955092	705.4000244
1477.476597	706.0
1477.998047	704.5999756
1478.519442	700.2000122
1479.040783	703.7999878
1479.562068	705.4000244
1480.083299	700.4000244
1480.604475	700.2000122
1481.125596	704.4000244
1481.646663	703.7999878
1482.167674	705.4000244
1482.688631	705.5999756
1483.209533	703.2000122
1483.73038	703.5999756
1484.251172	704.4000244
1484.771909	699.7999878
1485.292592	699.7999878
1485.81322	705.0
1486.333793	702.7999878
1486.854311	706.4000244
1487.374775	705.2000122
1487.895183	705.0
1488.415537	699.4000244
1488.935836	703.5999756
1489.456081	705.5999756
1489.97627	704.7999878
1490.496405	704.0
1491.016485	724.7999878
1492.056481	704.7999878
1492.576397	702.7999878
1493.096258	700.0
1493.616064	700.5999756
1494.135816	704.2000122
1494.655513	704.7999878
1495.175155	704.4000244
1495.694742	703.0
1496.214274	703.4000244
1496.733752	703.0
1497.253175	701.2000122
1497.772544	704.7999878
1498.291858	704.5999756
1498.811116	705.0
1499.330321	700.0
1499.84947	709.7999878
1500.368565	707.7999878
1500.887605	698.4000244
1501.406591	701.4000244
1501.925521	703.7999878
1502.444397	705.4000244
1502.963219	704.7999878
1503.481985	701.2000122
1504.000697	702.0
1504.519355	700.7999878
1505.037957	699.2000122
1505.556505	699.4000244
1506.074999	700.2000122
1506.593437	703.0
1507.111821	698.7999878
1507.63015	704.4000244
1508.148425	704.5999756
1508.666645	699.2000122
1509.18481	700.5999756
1509.702921	701.5999756
1510.220977	702.2000122
1510.738979	709.2000122
1511.256925	698.2000122
1511.774817	702.0
1512.292655	702.4000244
1512.810438	704.0
1513.328166	702.5999756
1513.84584	701.0
1514.363459	699.0
1514.881023	703.2000122
1515.398533	701.7999878
1515.915988	702.5999756
1516.433389	700.2000122
1516.950734	701.4000244
1517.468026	699.4000244
1517.985263	699.7999878
1518.502445	704.7999878
1519.019572	698.4000244
1519.536645	699.0
1520.053664	701.2000122
1520.570628	700.0
1521.087537	701.5999756
1521.604392	702.0
1522.121192	703.0
1522.637937	704.2000122
1523.154628	700.0
1523.671265	699.2000122
1524.187847	701.4000244
1524.704374	701.7999878
1525.220847	701.0
1525.737265	700.7999878
1526.253629	702.2000122
1526.769938	699.2000122
1527.286192	700.2000122
1527.802392	702.7999878
1528.318538	699.0
1528.834629	702.5999756
1529.350666	703.7999878
1529.866648	700.0
1530.382575	703.0
1530.898448	699.2000122
1531.414266	701.4000244
1531.93003	700.0
1532.44574	697.4000244
1532.961395	703.0
1533.476995	701.5999756
1533.992541	696.7999878
1534.508033	697.4000244
1535.02347	701.0
1535.538852	700.7999878
1536.05418	701.7999878
1536.569454	699.4000244
1537.084673	702.7999878
1537.599837	696.4000244
1538.114947	699.4000244
1538.630003	701.7999878
1539.145004	701.7999878
1539.659951	703.2000122
1540.174843	701.0
1540.689681	700.0
1541.204465	700.5999756
1541.719194	699.7999878
1542.233868	698.7999878
1542.748488	701.0
1543.263054	705.0
1543.777565	703.7999878
1544.292022	698.2000122
1544.806424	704.0
1545.320772	704.4000244
1545.835066	699.5999756
1546.349305	702.4000244
1546.863489	701.7999878
1547.37762	698.5999756
1547.891696	698.4000244
1548.405717	699.0
1548.919684	698.7999878
1549.433597	703.0
1549.947455	694.4000244
1550.461259	702.4000244
1550.975009	700.5999756
1551.488704	697.4000244
1552.002345	701.0
1552.515931	699.7999878
1553.029463	698.7999878
1553.542941	698.0
1554.056364	700.7999878
1554.569733	702.7999878
1555.083048	699.4000244
1555.596308	704.2000122
1556.109514	701.4000244
1556.622665	702.0
1557.135762	699.7999878
1557.648805	704.2000122
1558.161794	698.4000244
1558.674728	701.0
1559.187608	700.2000122
1559.700433	703.4000244
1560.213205	701.2000122
1560.725921	699.0
1561.238584	705.7999878
1561.751192	700.5999756
1562.263746	702.0
1562.776246	702.4000244
1563.288691	700.4000244
1563.801082	700.4000244
1564.313419	700.0
1564.825701	701.2000122
1565.337929	699.5999756
1565.850103	704.5999756
1566.362223	700.7999878
1566.874288	700.0
1567.386299	702.7999878
1567.898256	704.0
1568.410158	700.0
1568.922007	701.2000122
1569.4338	700.5999756
1569.94554	696.5999756
1570.457226	698.4000244
1570.968857	695.5999756
1571.480434	702.0
1571.991956	701.0
1572.503425	699.7999878
1573.014839	702.0
1573.526199	696.7999878
1574.037505	703.4000244
1574.548756	697.5999756
1575.059953	699.4000244
1575.571096	698.4000244
1576.082185	698.5999756
1576.59322	698.5999756
1577.1042	700.5999756
1577.615126	697.5999756
1578.125998	702.4000244
1578.636816	700.7999878
1579.14758	702.5999756
1579.658289	699.7999878
1580.168944	701.5999756
1580.679545	700.2000122
1581.190092	699.0
1581.700585	697.0
1582.211023	700.2000122
1582.721407	702.0
1583.231737	702.0
1583.742013	702.5999756
1584.252235	702.4000244
1584.762403	697.0
1585.272516	699.4000244
1585.782575	697.5999756
1586.292581	695.4000244
1586.802532	697.4000244
1587.312428	706.7999878
1587.822271	701.4000244
1588.33206	697.4000244
1588.841794	699.0
1589.351474	702.7999878
1589.8611	701.5999756
1590.370672	696.5999756
1590.88019	697.7999878
1591.389654	699.4000244
1591.899064	700.4000244
1592.408419	694.0
