1042.452273	924.4000244
1043.018714	905.0
1043.585098	913.2000122
1044.151424	915.4000244
1044.717692	904.0
1045.283903	913.0
1045.850056	907.0
1046.416151	909.7999878
1046.982188	908.4000244
1047.548167	911.2000122
1048.114089	907.2000122
1048.679953	909.5999756
1049.24576	905.5999756
1049.811509	912.5999756
1050.3772	897.0
1050.942833	905.5999756
1051.508408	902.7999878
1052.073926	903.5999756
1052.639387	903.2000122
1053.204789	896.7999878
1053.770134	903.5999756
1054.335421	895.5999756
1054.900651	908.7999878
1055.465823	895.0
1056.030937	900.0
1056.595993	902.4000244
1057.160992	901.2000122
1057.725934	894.7999878
1058.290817	902.5999756
1058.855643	901.0
1059.420411	900.5999756
1059.985122	895.0
1060.549775	896.5999756
1061.114371	890.5999756
1061.678908	896.4000244
1062.243389	896.7999878
1062.807811	900.2000122
1063.372176	898.5999756
1063.936483	899.2000122
1064.500733	903.4000244
1065.064925	906.2000122
1065.62906	892.4000244
1066.193137	902.0
1066.757156	899.2000122
1067.321118	894.7999878
1067.885022	894.7999878
1068.448869	905.0
1069.012658	893.2000122
1069.57639	895.7999878
1070.140063	895.7999878
1070.70368	904.7999878
1071.267239	896.5999756
1071.83074	895.0
1072.394184	898.2000122
1072.95757	898.0
1073.520899	897.4000244
1074.08417	900.5999756
1074.647383	893.4000244
1075.21054	891.7999878
1075.773638	893.0
1076.336679	895.4000244
1076.899663	894.5999756
1077.462589	895.7999878
1078.025457	894.0
1078.588268	895.2000122
1079.151022	906.0
1079.713718	900.2000122
1080.276356	895.4000244
1080.838937	894.4000244
1081.401461	901.4000244
1081.963927	892.4000244
1082.526336	892.5999756
1083.088687	903.0
1083.650981	896.2000122
1084.213217	906.4000244
1084.775396	904.4000244
1085.337517	907.4000244
1085.899581	892.7999878
1086.461587	901.5999756
1087.023536	903.5999756
1087.585428	902.2000122
1088.147262	896.2000122
1088.709039	897.0
1089.270758	902.4000244
1089.83242	900.7999878
1090.394024	896.2000122
1090.955571	896.2000122
1091.517061	891.7999878
1092.078493	894.5999756
1092.639868	894.0
1093.201185	899.5999756
1093.762445	895.7999878
1094.323648	893.5999756
1094.884793	894.5999756
1095.445881	900.7999878
1096.006911	895.5999756
1096.567884	894.7999878
1097.1288	902.0
1097.689659	888.4000244
1098.25046	895.4000244
1098.811203	900.0
1099.37189	890.2000122
1099.932518	892.5999756
1100.49309	893.5999756
1101.053604	894.2000122
1101.614061	892.5999756
1102.174461	900.5999756
1102.734803	888.4000244
1103.295088	899.7999878
1103.855316	898.2000122
1104.415486	905.5999756
1104.975599	891.4000244
1105.535655	897.5999756
1106.095653	890.5999756
1106.655594	898.4000244
1107.215478	893.0
1107.775305	896.4000244
1108.335074	892.7999878
1108.894786	901.2000122
1109.45444	896.0
1110.014038	894.0
1110.573578	888.7999878
1111.133061	891.5999756
1111.692486	894.7999878
1112.251854	900.2000122
1112.811165	888.7999878
1113.370419	895.4000244
1113.929616	901.4000244
1114.488755	901.5999756
1115.047837	892.0
1115.606862	904.0
1116.16583	906.4000244
1116.72474	889.4000244
1117.283593	892.0
1117.842389	902.5999756
1118.401128	895.7999878
1118.959809	898.5999756
1119.518433	897.7999878
1120.077	895.5999756
1120.63551	902.7999878
1121.193963	893.7999878
1121.752358	889.2000122
1122.310697	905.0
1122.868978	902.7999878
1123.427202	895.7999878
1123.985368	891.5999756
1124.543478	896.5999756
1125.10153	892.4000244
1125.659526	894.7999878
1126.217464	896.5999756
1126.775345	897.7999878
1127.333168	894.0
1127.890935	896.2000122
1128.448644	893.0
1129.006297	904.2000122
1129.563892	894.2000122
1130.12143	895.7999878
1130.678911	895.7999878
1131.236335	896.5999756
1131.793701	896.5999756
1132.351011	892.0
1132.908263	891.7999878
1133.465458	893.7999878
1134.022597	897.5999756
1134.579678	902.7999878
1135.136702	899.5999756
1135.693669	902.5999756
1136.250578	892.0
1136.807431	899.0
1137.364227	898.7999878
1137.920965	895.2000122
1138.477647	903.5999756
1139.034271	895.2000122
1139.590839	902.4000244
1140.147349	898.2000122
1140.703802	901.7999878
1141.260198	899.2000122
1141.816537	895.4000244
1142.37282	901.0
1142.929045	899.7999878
1143.485213	895.0
1144.041323	898.0
1144.597377	903.7999878
1145.153374	901.5999756
1145.709314	897.0
1146.265197	901.5999756
1146.821023	905.7999878
1147.376792	896.5999756
1147.932503	901.7999878
1148.488158	894.5999756
1149.043756	895.4000244
1149.599297	901.2000122
1150.154781	898.5999756
1150.710207	898.4000244
1151.265577	905.0
1151.82089	900.7999878
1152.376146	905.2000122
1152.931345	899.5999756
1153.486487	909.2000122
1154.041572	900.0
1154.5966	907.2000122
1155.151571	898.5999756
1155.706485	899.5999756
1156.261342	905.0
1156.816142	904.7999878
1157.370885	908.0
1157.925572	900.7999878
1158.480201	908.0
1159.034774	899.5999756
1159.589289	901.2000122
1160.143748	901.5999756
1160.698149	905.0
1161.252494	890.7999878
1161.806782	909.5999756
1162.361013	900.4000244
1162.915187	896.0
1163.469304	898.0
1164.023364	908.4000244
1164.577368	907.0
1165.131314	910.0
1165.685204	904.7999878
1166.239036	901.5999756
1166.792812	902.5999756
1167.346531	916.4000244
1167.900193	903.4000244
1168.453798	908.5999756
1169.007347	908.5999756
1169.560838	901.4000244
1170.114273	902.0
1170.66765	906.2000122
1171.220971	905.4000244
1171.774235	901.0
1172.327443	906.0
1172.880593	906.7999878
1173.433687	908.2000122
1173.986723	901.4000244
1174.539703	905.7999878
1175.092626	906.2000122
1175.645493	912.7999878
1176.198302	913.5999756
1176.751055	910.0
1177.303751	906.7999878
1177.85639	909.2000122
1178.408972	907.0
1178.961498	906.7999878
1179.513966	904.5999756
1180.066378	896.4000244
1180.618733	904.5999756
1181.171032	901.5999756
1181.723273	899.2000122
1182.275458	899.7999878
1182.827586	909.4000244
1183.379657	912.4000244
1183.931672	900.7999878
1184.48363	913.7999878
1185.035531	905.2000122
1185.587375	913.0
1186.139162	904.5999756
1186.690893	904.2000122
1187.242567	907.0
1187.794184	902.0
1188.345745	911.0
1188.897249	901.2000122
1189.448696	907.5999756
1190.000086	901.2000122
1190.55142	908.4000244
1191.102697	905.7999878
1191.653918	900.5999756
1192.205081	907.2000122
1192.756188	901.2000122
1193.307238	929.7999878
1193.858232	905.5999756
1194.409169	903.2000122
1194.960049	900.4000244
1195.510872	906.2000122
1196.061639	904.0
1196.612349	902.4000244
1197.163003	897.7999878
1197.713599	911.0
1198.264139	898.5999756
1198.814623	911.5999756
1199.36505	908.7999878
1199.91542	900.7999878
1200.465734	908.0
1201.01599	900.0
1201.566191	912.5999756
1202.116334	914.0
1202.666421	909.7999878
1203.216452	902.0
1203.766425	900.0
1204.316343	912.2000122
1204.866203	907.0
1205.416007	899.2000122
1205.965754	913.5999756
1206.515445	900.0
1207.065079	911.2000122
1207.614657	906.2000122
1208.164177	903.7999878
1208.713642	901.5999756
1209.26305	897.5999756
1209.812401	905.2000122
1210.361695	906.7999878
1210.910933	917.0
1211.460115	906.0
1212.00924	911.0
1212.558308	906.5999756
1213.10732	907.4000244
1213.656275	902.7999878
1214.205174	912.4000244
1214.754016	910.4000244
1215.302801	911.4000244
1215.85153	905.7999878
1216.400203	916.0
1216.948819	901.7999878
1217.497378	905.7999878
1218.045881	910.2000122
1218.594327	905.2000122
1219.142717	907.5999756
1219.691051	912.2000122
1220.239327	907.7999878
1220.787548	910.0
1221.335712	908.4000244
1221.883819	913.4000244
1222.43187	911.0
1222.979864	910.5999756
1223.527802	916.0
1224.075683	909.5999756
1224.623508	904.0
1225.171277	907.5999756
1225.718989	912.0
1226.266644	913.4000244
1226.814243	914.7999878
1227.361786	906.7999878
1227.909272	911.4000244
1228.456702	900.0
1229.004075	907.5999756
1229.551392	910.0
1230.098652	912.4000244
1230.645856	908.2000122
1231.193003	912.0
1231.740094	918.0
1232.287129	908.4000244
1232.834107	909.4000244
1233.381029	902.0
1233.927894	912.4000244
1234.474703	917.0
1235.021455	906.4000244
1235.568151	903.2000122
1236.114791	917.7999878
1236.661374	913.5999756
1237.207901	916.0
1237.754372	916.0
1238.300786	918.5999756
1238.847144	904.0
1239.393445	906.5999756
1239.93969	914.2000122
1240.485879	913.5999756
1241.032011	912.7999878
1241.578087	909.2000122
1242.124106	912.0
1242.67007	917.4000244
1243.215976	907.4000244
1243.761827	917.5999756
1244.307621	916.4000244
1244.853359	916.2000122
1245.39904	911.5999756
1245.944665	909.4000244
1246.490234	916.2000122
1247.035746	904.4000244
1247.581203	910.5999756
1248.126602	920.7999878
1248.671946	918.5999756
1249.217233	912.4000244
1249.762464	919.2000122
1250.307638	918.5999756
1250.852757	912.7999878
1251.397819	912.7999878
1251.942824	916.2000122
1252.487774	915.2000122
1253.032667	914.2000122
1253.577503	913.5999756
1254.122284	918.4000244
1254.667008	914.4000244
1255.211676	910.5999756
1255.756288	921.4000244
1256.300843	915.0
1256.845342	921.4000244
1257.389785	913.7999878
1257.934172	917.0
1258.478502	918.0
1259.022776	913.4000244
1259.566994	923.2000122
1260.111156	927.2000122
1260.655261	913.7999878
1261.199311	916.4000244
1261.743304	919.7999878
1262.28724	918.2000122
1262.831121	918.4000244
1263.374945	917.5999756
1263.918713	927.2000122
1264.462425	935.7999878
1265.006081	948.2000122
1265.54968	949.7999878
1266.093223	931.7999878
1266.636711	941.7999878
1267.180141	921.0
1267.723516	917.5999756
1268.266835	917.2000122
1268.810097	916.5999756
1269.353303	916.4000244
1269.896453	920.0
1270.439547	918.5999756
1270.982584	921.0
1271.525566	910.2000122
1272.068491	914.0
1272.61136	916.2000122
1273.154173	922.4000244
1273.69693	920.7999878
1274.239631	920.4000244
1274.782275	919.5999756
1275.324864	918.7999878
1275.867396	920.7999878
1276.409872	914.5999756
1276.952292	917.4000244
1277.494656	926.0
1278.036964	925.0
1278.579215	919.7999878
1279.121411	919.7999878
1279.66355	923.5999756
1280.205634	920.5999756
1280.747661	913.2000122
1281.289632	923.5999756
1281.831547	920.5999756
1282.373406	921.4000244
1282.915209	926.4000244
1283.456955	941.2000122
1283.998646	961.2000122
1284.540281	1034.800049
1285.081859	1244.0
1285.623381	1505.599976
1286.164848	1266.800049
1286.706258	1019.599976
1287.247612	950.7999878
1287.788911	936.0
1288.330153	932.5999756
1288.871339	931.2000122
1289.412469	920.7999878
1289.953543	924.5999756
1290.494561	931.0
1291.035523	927.7999878
1291.576428	925.7999878
1292.117278	922.5999756
1292.658072	916.7999878
1293.19881	923.2000122
1293.739492	920.5999756
1294.280118	922.4000244
1294.820687	935.0
1295.361201	935.2000122
1295.901659	920.4000244
1296.442061	923.2000122
1296.982406	924.0
1297.522696	926.0
1298.06293	920.5999756
1298.603108	918.0
1299.143229	925.5999756
1299.683295	920.2000122
1300.223305	932.7999878
1300.763259	924.4000244
1301.303157	926.2000122
1301.842999	923.7999878
1302.382785	914.4000244
1302.922515	931.7999878
1303.462189	927.2000122
1304.001807	923.4000244
1304.541369	921.4000244
1305.080875	929.0
1305.620326	918.0
1306.15972	925.0
1306.699058	928.5999756
1307.238341	919.0
1307.777567	923.0
1308.316738	915.4000244
1308.855853	925.5999756
1309.394912	916.5999756
1309.933915	929.0
1310.472862	923.0
1311.011753	922.4000244
1311.550588	923.2000122
1312.089367	911.5999756
1312.62809	921.4000244
1313.166758	918.2000122
1313.70537	917.7999878
1314.243925	926.4000244
1314.782425	921.4000244
1315.320869	925.7999878
1315.859257	920.4000244
1316.397589	920.0
1316.935866	910.5999756
1317.474086	925.0
1318.012251	919.4000244
1318.55036	912.0
1319.088413	917.7999878
1319.62641	922.2000122
1320.164351	923.0
1320.702236	922.2000122
1321.240066	917.2000122
1321.777839	914.7999878
1322.315557	919.5999756
1322.853219	919.2000122
1323.390826	922.7999878
1323.928376	920.4000244
1324.465871	920.2000122
1325.003309	922.4000244
1325.540692	921.0
1326.07802	922.2000122
1326.615291	913.5999756
1327.152506	928.7999878
1327.689666	917.5999756
1328.22677	917.7999878
1328.763818	917.7999878
1329.300811	922.7999878
1329.837747	917.2000122
1330.374628	918.5999756
1330.911453	921.2000122
1331.448222	911.4000244
1331.984936	922.4000244
1332.521594	932.4000244
1333.058196	922.4000244
1333.594742	918.2000122
1334.131232	926.5999756
1334.667667	923.0
1335.204046	914.0
1335.740369	920.0
1336.276637	916.0
1336.812848	918.2000122
1337.349004	925.4000244
1337.885105	921.0
1338.421149	929.2000122
1338.957138	922.2000122
1339.493071	923.0
1340.028949	923.0
1340.56477	920.5999756
1341.100536	911.2000122
1341.636246	914.7999878
1342.171901	919.2000122
1342.7075	923.4000244
1343.243043	923.5999756
1343.77853	918.0
1344.313962	924.0
1344.849338	930.4000244
1345.384659	919.0
1345.919923	918.5999756
1346.455133	926.7999878
1346.990286	923.0
1347.525384	923.7999878
1348.060426	915.7999878
1348.595412	922.5999756
1349.130343	923.4000244
1349.665218	924.5999756
1350.200037	916.4000244
1350.734801	923.0
1351.269509	921.0
1351.804162	920.7999878
1352.338758	924.5999756
1352.8733	921.2000122
1353.407785	928.4000244
1353.942215	924.4000244
1354.476589	917.0
1355.010908	921.0
1355.545171	916.0
1356.079379	932.5999756
1356.61353	929.5999756
1357.147627	922.2000122
1357.681667	927.5999756
1358.215652	921.7999878
1358.749582	926.4000244
1359.283456	932.5999756
1359.817274	929.2000122
1360.351037	924.2000122
1360.884744	920.7999878
1361.418395	924.5999756
1361.951991	925.5999756
1362.485531	924.4000244
1363.019016	934.0
1363.552445	920.5999756
1364.085819	919.0
1364.619137	922.7999878
1365.1524	923.5999756
1365.685607	921.0
1366.218758	933.5999756
1366.751854	928.2000122
1367.284894	920.2000122
1367.817879	930.0
1368.350808	920.2000122
1368.883682	931.7999878
1369.4165	912.0
1369.949263	929.7999878
1370.48197	940.0
1371.014622	939.7999878
1371.547218	930.4000244
1372.079758	934.0
1372.612244	928.0
1373.144673	926.0
1373.677047	925.5999756
1374.209366	922.5999756
1374.741629	929.2000122
1375.273836	931.2000122
1375.805989	929.2000122
1376.338085	924.2000122
1376.870126	929.7999878
1377.402112	922.0
1377.934042	924.7999878
1378.465917	929.2000122
1378.997736	932.0
1379.5295	923.5999756
1380.061208	927.2000122
1380.592861	931.2000122
1381.124459	932.4000244
1381.656	930.0
1382.187487	933.5999756
1382.718918	915.0
1383.250294	933.7999878
1383.781614	931.4000244
1384.312879	934.4000244
1384.844088	931.2000122
1385.375242	934.4000244
1385.90634	935.5999756
1386.437383	948.2000122
1386.968371	958.5999756
1387.499303	986.5999756
1388.03018	1092.599976
1388.561001	1585.0
1389.091767	1989.800049
1389.622478	1311.400024
1390.153133	1015.0
1390.683733	954.7999878
1391.214277	952.4000244
1391.744766	941.2000122
1392.2752	929.4000244
1392.805578	930.7999878
1393.335901	926.7999878
1393.866168	933.7999878
1394.396381	934.5999756
1394.926537	940.4000244
1395.456639	928.0
1395.986685	933.5999756
1396.516675	929.0
1397.046611	930.2000122
1397.576491	925.2000122
1398.106315	939.4000244
1398.636084	932.7999878
1399.165798	934.7999878
1399.695457	924.4000244
1400.22506	929.7999878
1400.754608	940.0
1401.284101	927.2000122
1401.813538	927.2000122
1402.34292	924.7999878
1402.872247	931.7999878
1403.401518	932.4000244
1403.930734	929.0
1404.459895	932.0
1404.989	939.4000244
1405.51805	933.5999756
1406.047045	936.4000244
1406.575984	929.5999756
1407.104869	938.7999878
1407.633697	927.2000122
1408.162471	943.2000122
1408.691189	935.0
1409.219852	945.4000244
1409.74846	975.4000244
1410.277013	1002.200012
1410.80551	985.0
1411.333952	958.4000244
1411.862339	938.0
1412.39067	930.4000244
1412.918946	939.0
1413.447167	934.7999878
1413.975333	935.7999878
1414.503444	926.2000122
1415.031499	930.2000122
1415.559499	947.4000244
1416.087444	933.0
1416.615333	928.7999878
1417.143167	935.5999756
1417.670947	937.7999878
1418.19867	925.5999756
1418.726339	929.4000244
1419.253952	936.2000122
1419.781511	931.0
1420.309014	934.2000122
1420.836461	921.5999756
1421.363854	932.5999756
1421.891191	934.4000244
1422.418474	938.5999756
1422.945701	924.7999878
1423.472872	935.2000122
1423.999989	932.2000122
1424.52705	920.5999756
1425.054057	935.5999756
1425.581008	930.7999878
1426.107904	939.7999878
1426.634745	932.4000244
1427.16153	934.4000244
1427.688261	931.4000244
1428.214936	925.7999878
1428.741556	930.4000244
1429.268121	934.2000122
1429.794631	931.0
1430.321085	924.5999756
1430.847485	932.0
1431.373829	931.5999756
1431.900118	933.2000122
1432.426353	936.0
1432.952532	942.5999756
1433.478655	927.0
1434.004724	932.0
1434.530738	932.5999756
1435.056696	922.0
1435.5826	935.5999756
1436.108448	931.5999756
1436.634241	932.5999756
1437.159979	931.5999756
1437.685662	931.0
1438.21129	933.0
1438.736863	929.4000244
1439.262381	927.5999756
1439.787843	933.0
1440.313251	929.5999756
1440.838603	938.7999878
1441.3639	924.0
1441.889143	930.4000244
1442.41433	932.0
1442.939462	934.7999878
1443.464539	927.4000244
1443.989561	930.5999756
1444.514528	933.5999756
1445.03944	930.0
1445.564297	930.5999756
1446.089099	931.0
1446.613846	940.0
1447.138537	931.2000122
1447.663174	929.7999878
1448.187756	938.4000244
1448.712282	932.2000122
1449.236754	929.5999756
1449.761171	930.0
1450.285532	944.4000244
1450.809839	941.0
1451.33409	930.0
1451.858287	940.2000122
1452.382428	932.0
1452.906515	937.4000244
1453.430546	934.7999878
1453.954523	931.4000244
1454.478444	938.0
1455.002311	932.7999878
1455.526123	939.0
1456.049879	930.5999756
1456.573581	931.4000244
1457.097227	927.4000244
1457.620819	935.0
1458.144356	932.2000122
1458.667837	931.2000122
1459.191264	934.7999878
1459.714636	939.7999878
1460.237952	935.5999756
1460.761214	941.4000244
1461.284421	941.5999756
1461.807573	938.4000244
1462.33067	937.2000122
1462.853712	931.5999756
1463.376699	935.0
1463.899632	947.0
1464.422509	930.5999756
1464.945331	942.4000244
1465.468099	936.2000122
1465.990811	937.7999878
1466.513469	933.4000244
1467.036071	934.5999756
1467.558619	934.4000244
1468.081112	940.2000122
1468.60355	937.0
1469.125933	943.4000244
1469.648261	938.0
1470.170534	931.4000244
1470.692752	937.2000122
1471.214916	930.7999878
1471.737024	936.4000244
1472.259078	923.2000122
1472.781077	932.5999756
1473.303021	931.5999756
1473.82491	935.0
1474.346744	934.5999756
1474.868523	930.4000244
1475.390248	936.7999878
1475.911917	938.4000244
1476.433532	931.7999878
1476.955092	932.4000244
1477.476597	924.4000244
1477.998047	929.2000122
1478.519442	931.4000244
1479.040783	945.7999878
1479.562068	933.7999878
1480.083299	945.7999878
1480.604475	933.2000122
1481.125596	941.4000244
1481.646663	927.2000122
1482.167674	928.4000244
1482.688631	928.5999756
1483.209533	935.4000244
1483.73038	933.4000244
1484.251172	933.4000244
1484.771909	931.0
1485.292592	935.0
1485.81322	936.2000122
1486.333793	915.2000122
1486.854311	937.2000122
1487.374775	940.5999756
1487.895183	935.4000244
1488.415537	926.0
1488.935836	934.7999878
1489.456081	942.4000244
1489.97627	935.7999878
1490.496405	928.2000122
1491.016485	936.5999756
1491.536511	936.7999878
1492.056481	937.5999756
1492.576397	939.4000244
1493.096258	936.4000244
1493.616064	943.2000122
1494.135816	932.7999878
1494.655513	938.0
1495.175155	939.0
1495.694742	933.0
1496.214274	931.7999878
1496.733752	929.4000244
1497.253175	932.5999756
1497.772544	928.7999878
1498.291858	937.4000244
1498.811116	933.7999878
1499.330321	940.7999878
1499.84947	941.7999878
1500.368565	932.2000122
1500.887605	936.5999756
1501.406591	938.5999756
1501.925521	934.4000244
1502.444397	933.7999878
1502.963219	938.4000244
1503.481985	931.2000122
1504.000697	934.2000122
1504.519355	936.0
1505.037957	937.4000244
1505.556505	933.7999878
1506.074999	937.0
1506.593437	931.5999756
1507.111821	943.0
1507.63015	934.7999878
1508.148425	937.7999878
1508.666645	927.0
1509.18481	930.0
1509.702921	929.4000244
1510.220977	935.5999756
1510.738979	939.2000122
1511.256925	937.7999878
1511.774817	944.4000244
1512.292655	925.5999756
1512.810438	926.0
1513.328166	929.0
1513.84584	930.7999878
1514.363459	939.5999756
1514.881023	942.7999878
1515.398533	925.7999878
1515.915988	938.0
1516.433389	935.5999756
1516.950734	928.4000244
1517.468026	933.2000122
1517.985263	942.7999878
1518.502445	933.2000122
1519.019572	927.2000122
1519.536645	937.2000122
1520.053664	931.0
1520.570628	936.7999878
1521.087537	937.7999878
1521.604392	937.2000122
1522.121192	936.7999878
1522.637937	929.7999878
1523.154628	939.2000122
1523.671265	938.2000122
1524.187847	937.5999756
1524.704374	934.7999878
1525.220847	939.2000122
1525.737265	936.4000244
1526.253629	949.4000244
1526.769938	926.4000244
1527.286192	936.2000122
1527.802392	940.2000122
1528.318538	934.0
1528.834629	934.2000122
1529.350666	941.2000122
1529.866648	932.2000122
1530.382575	935.4000244
1530.898448	934.4000244
1531.414266	935.7999878
1531.93003	945.5999756
1532.44574	942.5999756
1532.961395	938.5999756
1533.476995	947.7999878
1533.992541	935.0
1534.508033	939.4000244
1535.02347	941.0
1535.538852	943.2000122
1536.05418	941.0
1536.569454	944.7999878
1537.084673	935.2000122
1537.599837	940.4000244
1538.114947	938.7999878
1538.630003	938.4000244
1539.145004	937.0
1539.659951	936.4000244
1540.174843	937.7999878
1540.689681	937.4000244
1541.204465	940.7999878
1541.719194	933.5999756
1542.233868	950.5999756
1542.748488	946.7999878
1543.263054	942.0
1543.777565	943.4000244
1544.292022	936.7999878
1544.806424	938.5999756
1545.320772	938.2000122
1545.835066	942.7999878
1546.349305	939.0
1546.863489	936.5999756
1547.37762	934.4000244
1547.891696	938.7999878
1548.405717	932.4000244
1548.919684	998.4000244
1550.461259	1004.0
1550.975009	940.0
1551.488704	941.5999756
1552.002345	939.0
1552.515931	940.7999878
1553.029463	945.0
1553.542941	943.7999878
1554.056364	943.7999878
1554.569733	942.5999756
1555.083048	942.7999878
1555.596308	945.2000122
1556.109514	945.7999878
1556.622665	941.0
1557.135762	946.7999878
1557.648805	945.4000244
1558.161794	932.7999878
1558.674728	943.2000122
1559.187608	940.7999878
1559.700433	939.7999878
1560.213205	938.5999756
1560.725921	944.4000244
1561.238584	941.7999878
1561.751192	941.2000122
1562.263746	946.0
1562.776246	940.4000244
1563.288691	945.4000244
1563.801082	941.7999878
1564.313419	939.0
1564.825701	944.0
1565.337929	945.2000122
1565.850103	939.5999756
1566.362223	941.5999756
1566.874288	938.4000244
1567.386299	947.2000122
1567.898256	945.4000244
1568.410158	944.0
1568.922007	949.7999878
1569.4338	941.7999878
1569.94554	939.2000122
1570.457226	954.0
1570.968857	946.2000122
1571.480434	943.7999878
1571.991956	936.0
1572.503425	949.5999756
1573.014839	941.2000122
1573.526199	944.5999756
1574.037505	940.5999756
1574.548756	940.0
1575.059953	938.4000244
1575.571096	943.4000244
1576.082185	947.5999756
1576.59322	943.0
1577.1042	949.0
1577.615126	947.0
1578.125998	948.0
1578.636816	938.7999878
1579.14758	944.0
1579.658289	948.4000244
1580.168944	949.2000122
1580.679545	943.4000244
1581.190092	949.2000122
1581.700585	932.5999756
1582.211023	939.7999878
1582.721407	953.2000122
1583.231737	938.0
1583.742013	945.4000244
1584.252235	942.5999756
1584.762403	939.7999878
1585.272516	950.0
1585.782575	956.7999878
1586.292581	948.0
1586.802532	942.0
1587.312428	938.7999878
1587.822271	949.0
1588.33206	936.7999878
1588.841794	948.5999756
1589.351474	941.5999756
1589.8611	946.0
1590.370672	949.7999878
1590.88019	946.2000122
1591.389654	947.7999878
1591.899064	944.0
1592.408419	949.0
