1042.414189	670.75
1042.980685	669.75
1043.547124	670.25
1044.113505	669.75
1044.679828	672.75
1045.246093	668.5
1045.8123	669.25
1046.378449	669.75
1046.94454	668.0
1047.510573	667.25
1048.076548	669.25
1048.642465	666.25
1049.208325	665.75
1049.774126	670.5
1050.339869	670.5
1050.905555	669.0
1051.471183	664.75
1052.036752	667.5
1052.602264	666.25
1053.167718	667.5
1053.733114	667.0
1054.298452	665.5
1054.863733	664.25
1055.428955	666.25
1055.994119	664.5
1056.559226	666.25
1057.124275	668.75
1057.689266	666.25
1058.254199	667.75
1058.819074	664.25
1059.383891	663.75
1059.94865	663.5
1060.513352	665.25
1061.077996	666.0
1061.642582	668.0
1062.20711	664.75
1062.77158	664.75
1063.335992	662.5
1063.900347	664.0
1064.464643	661.5
1065.028882	663.0
1065.593063	665.75
1066.157187	665.5
1066.721252	663.75
1067.28526	666.25
1067.84921	669.0
1068.413102	666.0
1068.976936	666.75
1069.540713	663.5
1070.104431	672.0
1070.668092	666.0
1071.231696	664.75
1071.795241	666.5
1072.358729	662.25
1072.922159	664.0
1073.485531	664.5
1074.048845	663.5
1074.612102	664.25
1075.175301	665.75
1075.738442	662.5
1076.301525	664.0
1076.864551	664.25
1077.427519	665.0
1077.990429	661.25
1078.553281	665.75
1079.116076	664.75
1079.678813	665.25
1080.241492	663.75
1080.804114	663.0
1081.366678	661.25
1081.929184	666.0
1082.491633	665.5
1083.054024	662.5
1083.616357	663.0
1084.178632	664.5
1084.74085	662.25
1085.30301	663.0
1085.865113	663.5
1086.427158	662.5
1086.989145	664.75
1087.551074	666.0
1088.112946	664.5
1088.67476	663.25
1089.236517	664.5
1089.798216	665.0
1090.359857	662.0
1090.92144	665.0
1091.482966	664.75
1092.044435	662.5
1092.605845	664.0
1093.167199	664.25
1093.728494	662.5
1094.289732	663.0
1094.850912	662.0
1095.412035	667.0
1095.9731	664.0
1096.534107	664.0
1097.095057	668.25
1097.65595	662.25
1098.216784	666.75
1098.777561	664.25
1099.338281	662.75
1099.898943	663.25
1100.459547	661.25
1101.020094	665.0
1101.580584	662.25
1102.141015	665.0
1102.701389	662.25
1103.261706	665.0
1103.821965	665.25
1104.382167	666.0
1104.942311	666.0
1105.502397	664.0
1106.062426	663.75
1106.622398	667.5
1107.182312	664.0
1107.742168	663.0
1108.301967	662.5
1108.861708	663.75
1109.421392	665.0
1109.981019	665.75
1110.540587	665.5
1111.100099	667.75
1111.659553	663.75
1112.218949	660.75
1112.778288	665.5
1113.33757	661.75
1113.896794	662.75
1114.45596	663.25
1115.015069	661.5
1115.574121	663.5
1116.133115	664.25
1116.692052	662.75
1117.250931	666.75
1117.809753	661.25
1118.368517	662.25
1118.927224	666.5
1119.485873	663.75
1120.044465	664.75
1120.603	664.25
1121.161477	661.25
1121.719897	664.0
1122.278259	661.75
1122.836564	662.5
1123.394812	663.75
1123.953002	661.5
1124.511135	661.0
1125.06921	662.25
1125.627228	665.0
1126.185189	665.25
1126.743092	664.5
1127.300938	662.5
1127.858726	663.75
1128.416457	664.5
1128.974131	664.75
1129.531748	661.5
1130.089307	662.75
1130.646808	661.25
1131.204252	665.5
1131.761639	663.25
1132.318969	662.25
1132.876241	663.5
1133.433456	664.0
1133.990614	661.75
1134.547714	666.25
1135.104757	666.75
1135.661743	664.5
1136.218671	664.25
1136.775542	668.25
1137.332356	664.0
1137.889112	664.25
1138.445811	662.75
1139.002453	664.75
1139.559037	662.75
1140.115565	659.25
1140.672035	662.75
1141.228447	662.5
1141.784803	662.75
1142.341101	667.5
1142.897342	665.25
1143.453525	664.75
1144.009651	663.0
1144.565721	664.5
1145.121732	662.5
1145.677687	662.5
1146.233584	664.0
1146.789424	663.75
1147.345207	663.25
1147.900933	664.0
1148.456601	661.75
1149.012212	665.0
1149.567766	662.25
1150.123263	663.25
1150.678702	661.5
1151.234085	664.25
1151.78941	663.75
1152.344678	661.25
1152.899888	663.75
1153.455042	664.25
1154.010138	663.25
1154.565177	665.25
1155.120159	663.75
1155.675084	664.0
1156.229951	664.0
1156.784762	666.0
1157.339515	663.25
1157.894211	661.0
1158.44885	663.25
1159.003432	666.25
1159.557956	663.75
1160.112424	664.25
1160.666834	662.75
1161.221187	663.5
1161.775483	663.5
1162.329722	664.0
1162.883904	662.5
1163.438029	662.5
1163.992096	661.5
1164.546107	661.5
1165.10006	662.5
1165.653956	662.75
1166.207795	661.75
1166.761577	662.75
1167.315302	663.25
1167.86897	662.0
1168.422581	664.0
1168.976134	663.5
1169.529631	664.5
1170.08307	663.0
1170.636453	665.25
1171.189778	664.75
1171.743046	665.75
1172.296257	664.75
1172.849412	664.25
1173.402509	661.75
1173.955549	660.5
1174.508532	664.0
1175.061458	664.5
1175.614327	664.75
1176.167138	661.0
1176.719893	663.0
1177.272591	662.25
1177.825232	664.5
1178.377816	665.75
1178.930342	662.75
1179.482812	664.75
1180.035225	662.5
1180.587581	662.25
1181.139879	662.75
1181.692121	661.75
1182.244306	665.5
1182.796434	660.0
1183.348504	659.25
1183.900518	663.5
1184.452475	662.0
1185.004375	664.75
1185.556218	660.0
1186.108004	663.25
1186.659733	665.25
1187.211405	662.75
1187.76302	663.25
1188.314578	661.0
1188.866079	664.0
1189.417523	663.0
1189.96891	662.75
1190.520241	660.75
1191.071514	664.5
1191.622731	664.5
1192.17389	661.0
1192.724993	662.25
1193.276039	684.0
1193.827027	663.25
1194.377959	663.0
1194.928834	664.75
1195.479653	665.5
1196.030414	666.0
1196.581118	665.0
1197.131766	663.0
1197.682356	661.25
1198.23289	664.75
1198.783367	664.0
1199.333786	660.75
1199.88415	661.5
1200.434456	662.25
1200.984705	662.75
1201.534898	662.5
1202.085033	662.5
1202.635112	665.25
1203.185134	664.25
1203.735099	663.0
1204.285007	664.0
1204.834859	661.75
1205.384653	663.5
1205.934391	664.0
1206.484072	663.75
1207.033696	662.25
1207.583263	665.75
1208.132774	662.25
1208.682228	665.25
1209.231624	664.25
1209.780965	663.0
1210.330248	662.5
1210.879474	662.0
1211.428644	661.75
1211.977757	667.25
1212.526813	664.25
1213.075813	663.75
1213.624755	663.75
1214.173641	664.0
1214.72247	665.5
1215.271242	664.5
1215.819958	662.25
1216.368617	662.75
1216.917219	661.25
1217.465764	662.5
1218.014253	662.75
1218.562685	663.0
1219.11106	664.0
1219.659378	664.5
1220.20764	668.75
1220.755845	662.25
1221.303993	664.0
1221.852085	664.25
1222.400119	665.0
1222.948097	664.0
1223.496019	664.5
1224.043883	664.5
1224.591691	666.0
1225.139443	663.25
1225.687137	665.75
1226.234775	664.25
1226.782357	663.5
1227.329881	663.75
1227.877349	666.25
1228.42476	659.75
1228.972115	664.5
1229.519413	664.75
1230.066654	663.5
1230.613839	662.25
1231.160967	663.0
1231.708038	669.0
1232.255053	664.0
1232.802011	664.25
1233.348912	662.5
1233.895757	662.75
1234.442545	663.5
1234.989277	662.5
1235.535951	665.5
1236.08257	664.25
1236.629131	664.75
1237.175636	662.75
1237.722085	663.5
1238.268477	662.0
1238.814812	665.75
1239.361091	664.25
1239.907313	660.5
1240.453478	665.0
1240.999587	664.0
1241.54564	663.75
1242.091636	667.0
1242.637575	665.5
1243.183457	663.25
1243.729284	663.0
1244.275053	661.5
1244.820766	664.25
1245.366423	665.75
1245.912022	665.0
1246.457566	666.75
1247.003053	663.5
1247.548483	665.0
1248.093857	663.5
1248.639174	663.75
1249.184435	664.5
1249.729639	661.75
1250.274787	662.5
1250.819878	663.0
1251.364912	662.5
1251.909891	664.0
1252.454812	667.0
1252.999677	663.5
1253.544486	662.0
1254.089238	664.0
1254.633934	662.5
1255.178573	662.5
1255.723156	663.0
1256.267682	664.25
1256.812152	664.5
1257.356565	663.75
1257.900922	663.0
1258.445223	664.0
1258.989467	665.75
1259.533654	663.5
1260.077785	675.0
1260.62186	663.25
1261.165878	661.75
1261.70984	664.5
1262.253745	660.75
1262.797594	662.75
1263.341386	663.25
1263.885123	665.0
1264.428802	663.75
1264.972425	665.5
1265.515992	670.0
1266.059503	665.25
1266.602957	665.25
1267.146354	661.75
1267.689696	663.25
1268.23298	665.0
1268.776209	662.5
1269.319381	663.75
1269.862497	663.5
1270.405556	664.75
1270.948559	664.0
1271.491506	666.5
1272.034396	662.0
1272.57723	661.5
1273.120007	662.25
1273.662728	666.0
1274.205393	664.75
1274.748002	662.5
1275.290554	661.5
1275.83305	664.5
1276.375489	664.75
1276.917872	662.25
1277.460199	662.5
1278.00247	660.25
1278.544684	660.75
1279.086842	664.75
1279.628943	663.0
1280.170989	663.75
1280.712978	663.0
1281.25491	662.75
1281.796787	665.25
1282.338607	663.0
1282.880371	662.75
1283.422078	668.0
1283.963729	666.75
1284.505324	668.25
1285.046863	682.0
1285.588345	702.5
1286.129772	708.5
1286.671142	684.75
1287.212455	669.5
1287.753713	666.5
1288.294914	664.25
1288.836059	664.75
1289.377147	664.0
1289.91818	661.0
1290.459156	662.5
1291.000076	662.75
1291.54094	661.5
1292.081747	661.75
1292.622499	661.75
1293.163194	663.25
1293.703833	664.5
1294.244415	662.75
1294.784942	662.25
1295.325412	661.75
1295.865826	663.0
1296.406184	664.75
1296.946486	662.0
1297.486731	665.25
1298.026921	664.25
1298.567054	661.5
1299.107131	663.5
1299.647152	663.75
1300.187116	662.0
1300.727025	662.0
1301.266877	662.25
1301.806673	663.5
1302.346413	663.0
1302.886097	659.5
1303.425725	663.5
1303.965297	662.5
1304.504812	661.0
1305.044272	662.75
1305.583675	665.0
1306.123022	663.5
1306.662313	661.5
1307.201548	662.5
1307.740727	663.0
1308.279849	663.0
1308.818916	663.0
1309.357926	663.25
1309.896881	666.25
1310.435779	663.25
1310.974621	663.25
1311.513407	662.75
1312.052137	664.0
1312.590811	661.25
1313.129429	661.75
1313.667991	663.25
1314.206497	662.5
1314.744946	662.75
1315.28334	663.25
1315.821678	664.75
1316.359959	662.5
1316.898184	664.25
1317.436354	661.5
1317.974467	663.0
1318.512525	663.0
1319.050526	663.5
1319.588471	661.75
1320.12636	659.75
1320.664194	664.0
1321.201971	664.25
1321.739692	660.5
1322.277357	658.5
1322.814967	664.0
1323.35252	664.5
1323.890017	665.75
1324.427458	661.5
1324.964843	662.25
1325.502173	662.0
1326.039446	663.0
1326.576663	661.25
1327.113824	663.0
1327.65093	664.5
1328.187979	660.5
1328.724972	661.0
1329.26191	663.75
1329.798791	661.75
1330.335617	661.75
1330.872386	662.0
1331.4091	663.75
1331.945758	662.75
1332.48236	657.75
1333.018905	662.75
1333.555395	662.5
1334.091829	662.25
1334.628207	664.0
1335.164529	662.5
1335.700796	661.5
1336.237006	664.5
1336.77316	661.75
1337.309259	662.75
1337.845301	665.0
1338.381288	662.0
1338.917219	660.0
1339.453094	664.5
1339.988913	663.75
1340.524676	663.75
1341.060383	661.25
1341.596034	662.0
1342.13163	664.5
1342.66717	661.5
1343.202653	663.0
1343.738081	664.0
1344.273453	662.25
1344.80877	663.0
1345.34403	662.75
1345.879235	664.25
1346.414383	663.75
1346.949476	660.25
1347.484513	662.25
1348.019494	664.75
1348.55442	662.0
1349.089289	663.0
1349.624103	664.25
1350.158861	660.25
1350.693563	661.75
1351.228209	662.0
1351.7628	664.75
1352.297334	660.5
1352.831813	662.75
1353.366236	664.0
1353.900604	660.5
1354.434915	662.5
1354.969171	664.0
1355.503371	658.75
1356.037515	662.5
1356.571604	664.0
1357.105636	661.75
1357.639613	662.5
1358.173535	662.5
1358.7074	663.0
1359.24121	662.75
1359.774964	665.0
1360.308662	664.0
1360.842304	663.0
1361.375891	664.5
1361.909422	663.25
1362.442897	663.25
1362.976317	661.75
1363.50968	664.75
1364.042989	664.0
1364.576241	662.5
1365.109438	663.25
1365.642579	659.75
1366.175664	661.75
1366.708693	662.5
1367.241667	660.5
1367.774585	663.0
1368.307448	662.5
1368.840255	661.75
1369.373006	662.25
1369.905701	663.25
1370.438341	664.5
1370.970925	660.75
1371.503454	665.0
1372.035926	662.5
1372.568344	663.5
1373.100705	662.25
1373.633011	661.5
1374.165261	663.25
1374.697456	661.75
1375.229595	661.75
1375.761678	665.0
1376.293705	661.5
1376.825677	665.0
1377.357594	661.75
1377.889455	663.0
1378.42126	664.0
1378.953009	663.5
1379.484703	661.5
1380.016342	663.75
1380.547924	665.0
1381.079452	664.25
1381.610923	662.5
1382.142339	663.75
1382.673699	662.5
1383.205004	663.0
1383.736253	664.25
1384.267447	661.75
1384.798585	662.5
1385.329668	664.0
1385.860695	663.75
1386.391666	665.25
1386.922582	664.0
1387.453442	665.0
1387.984247	673.75
1388.514996	697.5
1389.04569	745.75
1389.576328	738.0
1390.10691	683.75
1390.637437	672.75
1391.167909	664.75
1391.698325	665.25
1392.228685	663.5
1392.75899	662.5
1393.28924	664.5
1393.819434	664.0
1394.349572	663.75
1394.879655	660.75
1395.409683	661.25
1395.939655	658.0
1396.469571	664.75
1396.999432	662.25
1397.529237	664.75
1398.058987	663.0
1398.588682	663.25
1399.118321	664.0
1399.647905	663.25
1400.177433	661.25
1400.706906	662.0
1401.236323	664.0
1401.765685	662.5
1402.294991	660.75
1402.824242	663.75
1403.353437	659.0
1403.882577	664.5
1404.411662	662.25
1404.940691	663.5
1405.469665	660.75
1405.998583	661.75
1406.527446	664.0
1407.056253	662.75
1407.585005	664.0
1408.113702	665.0
1408.642343	661.75
1409.170929	662.5
1409.69946	663.0
1410.227935	668.25
1410.756354	668.75
1411.284719	666.0
1411.813028	661.25
1412.341281	667.25
1412.869479	660.75
1413.397622	662.25
1413.92571	660.75
1414.453742	663.75
1414.981718	663.25
1415.50964	675.0
1416.037506	661.0
1416.565316	663.0
1417.093072	663.25
1417.620772	661.5
1418.148416	665.0
1418.676005	660.75
1419.203539	662.5
1419.731018	665.25
1420.258441	663.5
1420.785809	663.5
1421.313122	661.25
1421.840379	662.0
1422.367582	662.5
1422.894728	663.0
1423.42182	662.5
1423.948856	663.5
1424.475837	659.0
1425.002762	662.75
1425.529633	662.75
1426.056448	664.5
1426.583207	664.0
1427.109912	661.25
1427.636561	661.75
1428.163155	660.75
1428.689694	663.0
1429.216177	663.75
1429.742605	660.25
1430.268978	663.0
1430.795296	661.5
1431.321558	666.75
1431.847765	660.5
1432.373917	660.25
1432.900014	662.0
1433.426056	663.0
1433.952042	661.75
1434.477973	660.25
1435.003849	662.0
1435.529669	665.0
1436.055435	659.25
1436.581145	666.25
1437.1068	662.25
1437.632399	664.25
1438.157944	661.75
1438.683433	663.0
1439.208868	663.0
1439.734247	661.0
1440.25957	665.25
1440.784839	661.75
1441.310053	662.0
1441.835211	662.5
1442.360314	663.0
1442.885362	662.25
1443.410355	663.25
1443.935292	663.25
1444.460175	663.25
1444.985002	661.5
1445.509774	663.75
1446.034491	661.0
1446.559153	660.75
1447.08376	661.0
1447.608312	662.75
1448.132808	663.75
1448.65725	662.5
1449.181636	662.75
1449.705967	661.5
1450.230243	663.25
1450.754464	662.0
1451.27863	662.75
1451.802741	660.25
1452.326797	663.0
1452.850797	663.25
1453.374743	663.5
1453.898633	665.75
1454.422468	662.5
1454.946249	659.25
1455.469974	662.5
1455.993644	662.75
1456.517259	660.5
1457.040819	661.5
1457.564324	663.25
1458.087773	663.25
1458.611168	664.5
1459.134508	662.0
1459.657793	663.25
1460.181022	664.25
1460.704197	662.5
1461.227316	662.0
1461.750381	663.5
1462.27339	662.75
1462.796345	664.0
1463.319244	668.25
1463.842089	666.75
1464.364878	662.5
1464.887613	663.5
1465.410292	664.5
1465.932916	661.0
1466.455486	659.75
1466.978	662.0
1467.50046	662.25
1468.022864	663.0
1468.545214	663.0
1469.067508	664.0
1469.589748	660.0
1470.111932	665.25
1470.634062	665.5
1471.156136	661.75
1471.678156	659.25
1472.20012	663.75
1472.72203	660.75
1473.243885	661.25
1473.765685	663.0
1474.28743	662.5
1474.80912	660.5
1475.330755	660.25
1475.852335	662.0
1476.37386	659.25
1476.89533	661.0
1477.416745	664.25
1477.938106	658.25
1478.459411	661.75
1478.980662	663.25
1479.501857	662.0
1480.022998	665.0
1480.544084	660.75
1481.065115	662.75
1481.586091	659.75
1482.107012	662.25
1482.627878	662.5
1483.14869	663.5
1483.669446	662.0
1484.190148	659.75
1484.710794	664.5
1485.231386	660.25
1485.751923	663.75
1486.272406	662.25
1486.792833	660.75
1487.313205	662.5
1487.833523	661.5
1488.353786	660.25
1488.873994	660.25
1489.394147	661.25
1489.914245	661.25
1490.434288	661.0
1490.954277	662.75
1491.474211	662.75
1491.99409	663.25
1492.513914	663.75
1493.033683	661.75
1493.553398	660.5
1494.073057	661.5
1494.592662	660.5
1495.112212	662.25
1495.631708	661.5
1496.151148	661.75
1496.670534	660.75
1497.189865	663.25
1497.709141	660.25
1498.228362	662.5
1498.747529	663.75
1499.266641	660.0
1499.785698	668.25
1500.3047	663.75
1500.823648	663.25
1501.34254	658.75
1501.861379	662.0
1502.380162	663.25
1502.89889	662.0
1503.417564	662.75
1503.936183	662.25
1504.454748	661.0
1504.973257	661.25
1505.491712	659.75
1506.010112	662.25
1506.528458	661.0
1507.046748	661.5
1507.564984	664.25
1508.083166	661.5
1508.601292	661.75
1509.119364	663.25
1509.637381	661.25
1510.155344	662.5
1510.673252	670.0
1511.191105	660.5
1511.708903	663.0
1512.226647	662.0
1512.744336	661.0
1513.261971	664.25
1513.77955	663.0
1514.297076	663.25
1514.814546	663.5
1515.331962	663.5
1515.849323	659.75
1516.366629	664.25
1516.883881	661.0
1517.401078	662.25
1517.918221	661.75
1518.435309	663.25
1518.952342	661.25
1519.469321	663.25
1519.986245	662.0
1520.503114	660.5
1521.019929	663.25
1521.536689	660.75
1522.053395	661.75
1522.570046	663.5
1523.086642	662.75
1523.603184	663.75
1524.119671	664.25
1524.636103	662.0
1525.152481	661.0
1525.668805	658.75
1526.185073	664.0
1526.701288	666.0
1527.217447	663.75
1527.733552	661.5
1528.249603	661.75
1528.765599	662.75
1529.28154	662.0
1529.797427	661.5
1530.313259	660.0
1530.829037	663.25
1531.34476	661.0
1531.860429	662.25
1532.376043	663.5
1532.891602	660.25
1533.407107	662.5
1533.922558	661.5
1534.437954	658.75
1534.953295	661.5
1535.468582	660.75
1535.983815	661.5
1536.498993	661.5
1537.014116	660.25
1537.529185	660.75
1538.044199	663.25
1538.559159	662.75
1539.074064	661.5
1539.588915	665.75
1540.103712	661.0
1540.618454	659.25
1541.133141	661.5
1541.647774	660.25
1542.162353	661.75
1542.676877	662.25
1543.191346	661.75
1543.705761	663.0
1544.220122	661.5
1544.734428	664.0
1545.24868	662.25
1545.762877	659.25
1546.27702	664.0
1546.791109	662.25
1547.305143	661.5
1547.819122	662.0
1548.333047	663.0
1548.846918	662.25
1549.360734	661.75
1549.874496	659.0
1550.388204	660.25
1550.901857	659.75
1551.415455	662.0
1551.929	661.25
1552.442489	664.25
1552.955925	662.25
1553.469306	660.75
1553.982632	663.25
1554.495905	662.75
1555.009123	663.0
1555.522286	662.0
1556.035395	660.25
1556.54845	661.25
1557.06145	660.75
1557.574396	666.25
1558.087288	662.75
1558.600125	659.75
1559.112908	664.0
1559.625637	660.75
1560.138311	661.75
1560.650931	660.0
1561.163497	662.75
1561.676008	661.25
1562.188465	660.25
1562.700867	664.75
1563.213216	662.25
1563.725509	662.0
1564.237749	660.75
1564.749934	664.5
1565.262065	662.25
1565.774142	662.0
1566.286164	662.5
1566.798132	662.75
1567.310046	661.25
1567.821906	664.75
1568.333711	662.0
1568.845462	660.0
1569.357158	661.0
1569.868801	661.0
1570.380389	662.75
1570.891922	660.5
1571.403402	661.25
1571.914827	661.5
1572.426198	663.25
1572.937515	659.0
1573.448777	660.75
1573.959985	660.5
1574.471139	660.75
1574.982239	659.0
1575.493285	662.5
1576.004276	661.0
1576.515213	660.5
1577.026096	659.25
1577.536924	663.5
1578.047698	662.0
1578.558419	661.5
1579.069084	661.0
1579.579696	660.0
1580.090254	662.75
1580.600757	662.75
1581.111206	662.25
1581.621601	662.0
1582.131941	664.75
1582.642228	662.25
1583.15246	660.75
1583.662638	663.0
1584.172762	662.0
1584.682832	660.0
1585.192847	661.25
1585.702809	660.25
1586.212716	662.0
1586.722569	661.25
1587.232368	661.75
1587.742113	661.75
1588.251803	661.0
1588.76144	659.25
1589.271022	674.25
1590.290024	661.5
1590.799444	663.75
1591.30881	658.25
1591.818121	660.75
1592.327379	661.75
