1042.414189	691.25
1042.980685	689.25
1043.547124	690.5
1044.113505	692.75
1044.679828	694.5
1045.246093	690.0
1045.8123	690.25
1046.378449	683.25
1046.94454	684.5
1047.510573	684.25
1048.076548	685.5
1048.642465	685.0
1049.208325	684.0
1049.774126	679.75
1050.339869	683.5
1050.905555	680.25
1051.471183	678.0
1052.036752	680.25
1052.602264	683.25
1053.167718	679.5
1053.733114	678.5
1054.298452	681.5
1054.863733	679.5
1055.428955	680.0
1055.994119	677.5
1056.559226	680.75
1057.124275	681.5
1057.689266	679.75
1058.254199	680.0
1058.819074	680.25
1059.383891	678.75
1059.94865	676.0
1060.513352	677.5
1061.077996	678.5
1061.642582	677.5
1062.20711	677.5
1062.77158	674.75
1063.335992	679.75
1063.900347	677.25
1064.464643	675.75
1065.028882	676.0
1065.593063	678.25
1066.157187	676.25
1066.721252	679.25
1067.28526	678.75
1067.84921	679.5
1068.413102	677.0
1068.976936	679.25
1069.540713	678.5
1070.104431	685.0
1070.668092	681.75
1071.231696	676.25
1071.795241	675.5
1072.358729	675.25
1072.922159	676.0
1073.485531	676.75
1074.048845	677.5
1074.612102	679.5
1075.175301	675.0
1075.738442	677.25
1076.301525	676.5
1076.864551	677.0
1077.427519	676.0
1077.990429	675.25
1078.553281	675.75
1079.116076	674.25
1079.678813	676.25
1080.241492	677.75
1081.929184	676.0
1082.491633	676.75
1083.054024	674.25
1083.616357	674.75
1084.178632	675.25
1084.74085	674.25
1085.30301	676.25
1085.865113	674.0
1086.427158	676.0
1086.989145	678.5
1087.551074	678.25
1088.112946	672.25
1088.67476	676.25
1089.236517	675.0
1089.798216	676.75
1090.359857	677.5
1090.92144	676.75
1091.482966	675.75
1092.044435	676.75
1092.605845	673.0
1093.167199	674.25
1093.728494	675.0
1094.289732	673.5
1094.850912	673.5
1095.412035	678.75
1095.9731	678.75
1096.534107	675.5
1097.095057	682.25
1097.65595	671.5
1098.216784	676.25
1098.777561	674.5
1099.338281	675.0
1099.898943	673.75
1100.459547	677.5
1101.020094	675.75
1101.580584	670.75
1102.141015	672.0
1102.701389	676.5
1103.261706	676.5
1103.821965	676.0
1104.382167	674.5
1104.942311	677.5
1105.502397	678.0
1106.062426	675.25
1106.622398	673.5
1107.182312	676.0
1107.742168	676.5
1108.301967	675.75
1108.861708	675.25
1109.421392	674.25
1109.981019	679.0
1110.540587	678.25
1111.100099	675.5
1111.659553	674.0
1112.218949	676.75
1112.778288	673.0
1113.33757	674.0
1113.896794	672.5
1114.45596	675.0
1115.015069	672.0
1115.574121	675.5
1116.133115	672.75
1116.692052	671.75
1117.250931	679.0
1117.809753	675.5
1118.368517	677.0
1118.927224	675.25
1119.485873	676.5
1120.044465	678.25
1120.603	676.25
1121.161477	675.5
1121.719897	675.25
1122.278259	677.75
1122.836564	675.75
1123.394812	674.5
1123.953002	677.5
1124.511135	672.5
1125.06921	675.75
1125.627228	675.75
1126.185189	677.0
1126.743092	675.75
1127.300938	677.25
1127.858726	678.75
1128.416457	677.75
1128.974131	676.75
1129.531748	677.25
1130.089307	676.0
1130.646808	676.75
1131.204252	680.0
1131.761639	674.75
1132.318969	674.5
1132.876241	677.5
1133.433456	672.75
1133.990614	673.5
1134.547714	676.75
1135.104757	670.0
1135.661743	674.0
1136.218671	676.0
1136.775542	676.25
1137.332356	677.0
1137.889112	677.75
1138.445811	677.5
1139.002453	677.25
1139.559037	674.25
1140.115565	675.0
1140.672035	675.0
1141.228447	672.25
1141.784803	674.5
1142.341101	673.25
1142.897342	672.5
1143.453525	676.0
1144.009651	679.75
1144.565721	676.75
1145.121732	676.0
1145.677687	680.25
1146.233584	673.25
1146.789424	672.25
1147.345207	675.25
1147.900933	679.5
1148.456601	676.0
1149.012212	674.75
1149.567766	677.0
1150.123263	677.75
1150.678702	677.75
1151.234085	684.5
1151.78941	685.0
1152.344678	677.5
1152.899888	678.0
1153.455042	675.25
1154.010138	676.5
1154.565177	676.75
1155.120159	674.25
1155.675084	673.0
1156.229951	677.5
1156.784762	676.0
1157.339515	674.5
1157.894211	679.5
1158.44885	676.75
1159.003432	675.5
1159.557956	675.0
1160.112424	678.5
1160.666834	673.75
1161.221187	677.25
1161.775483	675.25
1162.329722	672.75
1162.883904	676.0
1163.438029	678.0
1163.992096	675.75
1164.546107	676.0
1165.10006	675.0
1165.653956	675.5
1166.207795	675.25
1166.761577	675.25
1167.315302	677.75
1167.86897	677.25
1168.422581	673.75
1168.976134	674.5
1169.529631	672.25
1170.08307	672.5
1170.636453	674.75
1171.189778	674.75
1171.743046	675.75
1172.296257	675.75
1172.849412	671.0
1173.402509	675.75
1173.955549	677.25
1174.508532	674.75
1175.061458	675.75
1175.614327	675.25
1176.167138	676.5
1176.719893	673.5
1177.272591	673.25
1177.825232	676.75
1178.377816	673.5
1178.930342	673.75
1179.482812	671.75
1180.035225	670.25
1180.587581	671.5
1181.139879	674.25
1181.692121	673.25
1182.244306	673.5
1182.796434	676.0
1183.348504	674.5
1183.900518	677.0
1184.452475	704.25
1185.004375	1066.25
1185.556218	678.5
1186.108004	673.5
1186.659733	675.75
1187.211405	675.75
1187.76302	673.0
1188.314578	676.5
1188.866079	674.25
1189.417523	673.5
1189.96891	671.25
1190.520241	675.75
1191.071514	672.25
1191.622731	674.25
1192.17389	675.75
1192.724993	671.75
1193.276039	687.5
1193.827027	675.5
1194.377959	673.25
1194.928834	674.75
1195.479653	674.75
1196.030414	674.75
1196.581118	673.5
1197.131766	672.75
1197.682356	673.5
1198.23289	675.75
1198.783367	674.5
1199.333786	673.25
1199.88415	671.75
1200.434456	671.25
1200.984705	671.5
1201.534898	674.5
1202.085033	675.0
1202.635112	677.75
1203.185134	672.5
1203.735099	675.25
1204.285007	676.0
1204.834859	674.0
1205.384653	676.5
1205.934391	675.25
1206.484072	675.5
1207.033696	676.75
1207.583263	674.5
1208.132774	675.25
1208.682228	673.75
1209.231624	675.5
1209.780965	674.75
1210.330248	672.75
1210.879474	672.5
1211.428644	673.25
1211.977757	675.5
1212.526813	675.25
1213.075813	674.25
1213.624755	675.0
1214.173641	675.0
1214.72247	672.5
1215.271242	675.75
1215.819958	674.75
1216.368617	675.0
1216.917219	676.25
1217.465764	672.75
1218.014253	672.25
1218.562685	673.25
1219.11106	674.75
1219.659378	676.75
1220.20764	678.0
1220.755845	674.5
1221.303993	674.5
1221.852085	674.25
1222.400119	673.75
1222.948097	676.75
1223.496019	674.5
1224.043883	678.0
1224.591691	675.25
1225.139443	676.5
1225.687137	676.75
1226.234775	675.75
1226.782357	677.0
1227.329881	677.0
1227.877349	675.5
1228.42476	672.5
1228.972115	675.75
1229.519413	675.75
1230.066654	674.5
1230.613839	676.75
1231.160967	677.5
1231.708038	675.75
1232.255053	677.0
1232.802011	674.75
1233.348912	673.0
1233.895757	676.0
1234.442545	675.25
1234.989277	675.0
1235.535951	677.75
1236.08257	676.25
1236.629131	677.0
1237.175636	675.25
1237.722085	673.75
1238.268477	675.75
1238.814812	673.0
1239.361091	671.5
1239.907313	674.5
1240.453478	675.0
1240.999587	679.0
1241.54564	676.25
1242.091636	677.5
1242.637575	676.5
1243.183457	674.0
1243.729284	676.25
1244.275053	674.25
1244.820766	676.75
1245.366423	672.5
1245.912022	678.25
1246.457566	679.0
1247.003053	674.25
1247.548483	676.25
1248.093857	677.25
1248.639174	673.0
1249.184435	676.0
1249.729639	676.0
1250.274787	677.0
1250.819878	679.0
1251.364912	678.25
1251.909891	675.0
1252.454812	680.75
1252.999677	674.75
1253.544486	676.0
1254.089238	679.5
1254.633934	680.25
1255.178573	677.75
1255.723156	677.75
1256.267682	676.75
1256.812152	674.0
1257.356565	675.75
1257.900922	674.0
1258.445223	678.0
1258.989467	678.0
1259.533654	677.0
1260.077785	693.5
1260.62186	677.25
1261.165878	678.75
1261.70984	679.5
1262.253745	677.75
1262.797594	679.5
1263.341386	682.0
1263.885123	686.5
1264.428802	688.5
1264.972425	695.5
1265.515992	717.25
1266.059503	715.5
1266.602957	698.5
1267.146354	686.75
1267.689696	683.0
1268.23298	684.0
1268.776209	681.25
1269.319381	680.0
1269.862497	674.5
1270.405556	676.25
1270.948559	678.75
1271.491506	680.5
1272.034396	677.5
1272.57723	680.25
1273.120007	676.25
1273.662728	679.0
1274.205393	675.0
1274.748002	677.0
1275.290554	681.75
1275.83305	681.25
1276.375489	675.5
1276.917872	678.75
1277.460199	677.5
1278.00247	674.25
1278.544684	680.75
1279.086842	678.0
1279.628943	678.0
1280.170989	680.25
1280.712978	681.25
1281.25491	681.5
1281.796787	679.5
1282.338607	682.0
1282.880371	687.25
1283.422078	696.25
1283.963729	702.25
1284.505324	717.75
1285.046863	796.75
1285.588345	1045.75
1286.129772	1332.5
1286.671142	1045.25
1287.212455	784.75
1287.753713	711.75
1288.294914	694.5
1288.836059	690.25
1289.377147	685.5
1289.91818	684.25
1290.459156	680.75
1291.000076	679.0
1291.54094	682.0
1292.081747	676.5
1292.622499	674.75
1293.163194	681.0
1293.703833	680.75
1294.244415	678.0
1294.784942	678.0
1295.325412	676.75
1295.865826	676.75
1296.406184	675.25
1296.946486	678.0
1297.486731	683.25
1298.026921	674.25
1298.567054	675.5
1299.107131	674.75
1299.647152	678.25
1300.187116	678.0
1300.727025	673.5
1301.266877	675.5
1301.806673	677.0
1302.346413	678.0
1302.886097	675.5
1303.425725	677.5
1303.965297	679.0
1304.504812	675.5
1305.044272	676.75
1305.583675	676.0
1306.123022	677.0
1306.662313	675.5
1307.201548	678.5
1307.740727	678.0
1308.279849	674.5
1308.818916	677.5
1309.357926	676.75
1309.896881	674.0
1310.435779	676.25
1310.974621	677.5
1311.513407	677.0
1312.052137	678.0
1312.590811	678.75
1313.129429	679.75
1313.667991	678.0
1314.206497	675.75
1314.744946	677.5
1315.28334	676.0
1315.821678	674.25
1316.359959	677.75
1316.898184	676.5
1317.436354	678.25
1317.974467	676.5
1318.512525	680.5
1319.050526	674.25
1319.588471	677.0
1320.12636	673.0
1320.664194	678.75
1321.201971	675.75
1321.739692	677.5
1322.277357	676.5
1322.814967	677.0
1323.35252	677.25
1323.890017	681.75
1324.427458	676.75
1324.964843	676.75
1325.502173	679.0
1326.039446	677.0
1326.576663	676.0
1327.113824	674.0
1327.65093	678.75
1328.187979	677.5
1328.724972	675.5
1329.26191	675.25
1329.798791	676.5
1330.335617	677.25
1330.872386	675.0
1331.4091	673.75
1331.945758	679.5
1332.48236	672.0
1333.018905	676.0
1333.555395	675.5
1334.091829	677.5
1334.628207	677.25
1335.164529	680.0
1335.700796	671.0
1336.237006	674.25
1336.77316	676.0
1337.309259	674.25
1337.845301	673.5
1338.381288	681.5
1338.917219	680.0
1339.453094	679.25
1339.988913	673.75
1340.524676	675.75
1341.060383	673.75
1341.596034	677.25
1342.13163	676.5
1342.66717	674.25
1343.202653	677.25
1343.738081	674.25
1344.273453	675.25
1344.80877	678.0
1345.34403	678.75
1345.879235	679.5
1346.414383	678.75
1346.949476	676.0
1347.484513	676.0
1348.019494	675.5
1348.55442	676.5
1349.089289	675.25
1349.624103	677.25
1350.158861	676.5
1350.693563	675.75
1351.228209	675.5
1351.7628	679.75
1352.297334	676.25
1352.831813	678.0
1353.366236	679.0
1353.900604	676.25
1354.434915	673.5
1354.969171	675.0
1355.503371	678.75
1356.037515	672.5
1356.571604	677.0
1357.105636	677.5
1357.639613	676.75
1358.173535	675.5
1358.7074	677.25
1359.24121	679.0
1359.774964	677.75
1360.308662	676.75
1360.842304	678.25
1361.375891	673.75
1361.909422	680.0
1362.442897	678.25
1362.976317	677.75
1363.50968	677.75
1364.042989	676.25
1364.576241	675.5
1365.109438	677.75
1365.642579	676.0
1366.175664	678.5
1366.708693	678.25
1367.241667	677.25
1367.774585	675.75
1368.307448	681.75
1368.840255	675.25
1369.373006	678.75
1369.905701	676.25
1370.438341	680.5
1370.970925	698.25
1371.503454	689.75
1372.035926	676.75
1372.568344	677.5
1373.100705	679.0
1373.633011	675.5
1374.165261	678.75
1374.697456	679.0
1375.229595	680.25
1375.761678	680.75
1376.293705	674.25
1376.825677	674.0
1377.357594	677.5
1377.889455	673.5
1378.42126	674.75
1378.953009	675.5
1379.484703	680.25
1380.016342	678.5
1380.547924	676.5
1381.079452	678.75
1381.610923	678.75
1382.142339	677.5
1382.673699	679.25
1383.205004	677.25
1383.736253	680.0
1384.267447	683.25
1384.798585	681.25
1385.329668	685.25
1385.860695	687.25
1386.391666	691.0
1386.922582	698.5
1387.453442	711.0
1387.984247	741.25
1388.514996	892.75
1389.04569	1461.0
1389.576328	1734.75
1390.10691	1000.5
1390.637437	753.25
1391.167909	709.25
1391.698325	690.5
1392.228685	692.25
1392.75899	686.0
1393.28924	686.0
1393.819434	681.75
1394.349572	681.0
1394.879655	680.25
1395.409683	684.5
1395.939655	682.5
1396.469571	679.25
1396.999432	680.0
1397.529237	681.25
1398.058987	679.0
1398.588682	680.75
1399.118321	678.25
1399.647905	680.25
1400.177433	675.5
1400.706906	677.0
1401.236323	678.0
1401.765685	674.5
1402.294991	677.75
1402.824242	676.25
1403.353437	682.5
1403.882577	679.75
1404.411662	678.25
1404.940691	678.75
1405.469665	679.5
1405.998583	677.5
1406.527446	676.0
1407.056253	680.0
1407.585005	679.75
1408.113702	680.25
1408.642343	680.25
1409.170929	685.0
1409.69946	695.75
1410.227935	728.75
1410.756354	757.25
1411.284719	730.5
1411.813028	699.5
1412.341281	685.0
1412.869479	681.25
1413.397622	679.75
1413.92571	678.25
1414.453742	676.5
1414.981718	674.25
1415.50964	690.0
1416.037506	678.75
1416.565316	676.75
1417.093072	678.0
1417.620772	675.0
1418.148416	675.75
1418.676005	679.0
1419.203539	676.75
1419.731018	674.75
1420.258441	674.0
1420.785809	679.5
1421.313122	676.0
1421.840379	676.25
1422.367582	675.25
1422.894728	679.5
1423.42182	681.5
1423.948856	676.5
1424.475837	679.0
1425.002762	675.75
1425.529633	674.5
1426.056448	673.5
1426.583207	680.75
1427.109912	677.25
1427.636561	678.0
1428.163155	674.5
1428.689694	677.0
1429.216177	674.75
1429.742605	674.0
1430.268978	672.5
1430.795296	673.75
1431.321558	674.75
1431.847765	678.5
1432.373917	672.75
1432.900014	677.25
1433.426056	676.5
1433.952042	678.0
1434.477973	673.0
1435.003849	678.0
1435.529669	674.5
1436.055435	670.5
1436.581145	675.75
1437.1068	674.75
1437.632399	676.0
1438.157944	672.75
1438.683433	675.5
1439.208868	678.5
1439.734247	677.25
1440.25957	673.5
1440.784839	673.75
1441.310053	673.75
1441.835211	674.25
1442.360314	675.0
1442.885362	673.25
1443.410355	676.0
1443.935292	674.25
1444.460175	672.5
1444.985002	675.25
1445.509774	675.0
1446.034491	672.5
1446.559153	673.25
1447.08376	675.75
1447.608312	674.5
1448.132808	676.75
1448.65725	670.5
1449.181636	674.5
1449.705967	675.75
1450.230243	670.75
1450.754464	674.0
1451.27863	674.25
1451.802741	674.25
1452.326797	676.5
1452.850797	669.25
1453.374743	669.5
1453.898633	675.25
1454.422468	672.25
1454.946249	673.25
1455.469974	674.5
1455.993644	670.75
1456.517259	674.25
1457.040819	674.0
1457.564324	675.5
1458.087773	671.5
1458.611168	672.0
1459.134508	675.75
1459.657793	673.5
1460.181022	672.75
1460.704197	674.0
1461.227316	672.5
1461.750381	673.75
1462.27339	671.75
1462.796345	675.5
1463.319244	687.0
1463.842089	686.5
1464.364878	674.5
1464.887613	671.5
1465.410292	672.5
1465.932916	670.25
1466.455486	673.25
1466.978	673.5
1467.50046	670.75
1468.022864	673.75
1468.545214	672.75
1469.067508	671.75
1469.589748	670.75
1470.111932	673.75
1470.634062	670.75
1471.156136	673.75
1471.678156	674.5
1472.20012	671.5
1472.72203	669.75
1473.243885	671.0
1473.765685	670.25
1474.28743	673.75
1474.80912	672.75
1475.330755	673.0
1475.852335	673.5
1476.37386	672.5
1476.89533	671.5
1477.416745	675.25
1477.938106	672.0
1478.459411	674.0
1478.980662	676.5
1479.501857	673.0
1480.022998	673.25
1480.544084	672.75
1481.065115	673.75
1481.586091	669.5
1482.107012	671.25
1482.627878	673.75
1483.14869	672.0
1483.669446	671.5
1484.190148	672.5
1484.710794	673.25
1485.231386	673.25
1485.751923	675.0
1486.272406	673.75
1486.792833	673.75
1487.313205	674.5
1487.833523	676.25
1488.353786	673.25
1488.873994	670.75
1489.394147	675.75
1489.914245	673.25
1490.434288	673.5
1490.954277	672.0
1491.474211	671.0
1491.99409	673.75
1492.513914	673.75
1493.033683	672.0
1493.553398	673.75
1494.073057	673.5
1494.592662	673.0
1495.112212	671.0
1495.631708	675.25
1496.151148	673.75
1496.670534	671.75
1497.189865	670.5
1497.709141	675.5
1498.228362	674.25
1498.747529	676.5
1499.266641	672.5
1499.785698	680.5
1500.3047	672.0
1500.823648	673.75
1501.34254	672.0
1501.861379	674.5
1502.380162	672.75
1502.89889	671.75
1503.417564	672.75
1503.936183	672.5
1504.454748	671.0
1504.973257	672.25
1505.491712	670.0
1506.010112	672.5
1506.528458	678.25
1507.046748	672.75
1507.564984	673.75
1508.083166	672.5
1508.601292	672.75
1509.119364	672.0
1509.637381	669.75
1510.155344	673.5
1510.673252	682.5
1511.191105	670.0
1511.708903	673.0
1512.226647	670.75
1512.744336	671.75
1513.261971	670.75
1513.77955	671.0
1514.297076	671.25
1514.814546	672.5
1515.331962	670.5
1515.849323	672.25
1516.366629	674.25
1516.883881	672.5
1517.401078	672.5
1517.918221	675.5
1518.435309	670.5
1518.952342	670.0
1519.469321	674.25
1519.986245	677.5
1520.503114	671.5
1521.019929	674.25
1521.536689	670.75
1522.053395	675.0
1522.570046	673.75
1523.086642	669.75
1523.603184	674.5
1524.119671	671.5
1524.636103	671.75
1525.152481	672.5
1525.668805	675.0
1526.185073	682.75
1526.701288	683.75
1527.217447	676.25
1527.733552	670.5
1528.249603	673.0
1528.765599	672.75
1529.28154	674.5
1529.797427	669.5
1530.313259	673.25
1530.829037	673.75
1531.34476	670.5
1531.860429	674.25
1532.376043	672.25
1532.891602	673.0
1533.407107	676.25
1533.922558	670.5
1534.437954	672.75
1534.953295	671.75
1535.468582	670.5
1535.983815	672.0
1536.498993	674.0
1537.014116	672.5
1537.529185	671.75
1538.044199	671.0
1538.559159	674.25
1539.074064	672.75
1539.588915	674.5
1540.103712	672.25
1540.618454	670.5
1541.133141	671.5
1541.647774	671.75
1542.162353	673.25
1542.676877	671.0
1543.191346	674.5
1543.705761	672.5
1544.220122	672.25
1544.734428	672.0
1545.24868	673.5
1545.762877	671.5
1546.27702	672.0
1546.791109	670.5
1547.305143	671.25
1547.819122	672.25
1548.333047	670.25
1548.846918	675.75
1549.360734	671.75
1549.874496	674.75
1550.388204	670.5
1550.901857	675.25
1551.415455	676.25
1551.929	674.0
1552.442489	670.5
1552.955925	671.5
1553.469306	674.5
1553.982632	674.25
1554.495905	676.75
1555.009123	672.25
1555.522286	671.75
1556.035395	672.5
1556.54845	674.25
1557.06145	675.75
1557.574396	672.25
1558.087288	671.5
1558.600125	670.5
1559.112908	673.0
1559.625637	671.25
1560.138311	674.5
1560.650931	672.0
1561.163497	673.25
1561.676008	675.0
1562.188465	673.0
1562.700867	676.75
1563.213216	673.5
1563.725509	674.5
1564.237749	671.75
1564.749934	670.25
1565.262065	673.0
1565.774142	675.0
1566.286164	676.75
1566.798132	673.5
1567.310046	673.75
1567.821906	673.75
1568.333711	675.5
1568.845462	669.75
1569.357158	675.25
1569.868801	673.25
1570.380389	674.0
1570.891922	675.25
1571.403402	673.0
1571.914827	675.0
1572.426198	670.5
1572.937515	673.0
1573.448777	670.5
1573.959985	674.5
1574.471139	671.0
1574.982239	672.0
1575.493285	672.5
1576.004276	669.75
1576.515213	674.25
1577.026096	672.0
1577.536924	671.25
1578.047698	672.0
1578.558419	674.5
1579.069084	672.25
1579.579696	671.25
1580.090254	672.75
1580.600757	672.5
1581.111206	672.25
1581.621601	671.25
1582.131941	671.5
1582.642228	672.25
1583.15246	672.75
1583.662638	671.75
1584.172762	671.5
1584.682832	674.25
1585.192847	672.0
1585.702809	673.0
1586.212716	673.25
1586.722569	672.5
1587.232368	669.5
1587.742113	672.5
1588.251803	673.5
1588.76144	670.5
1589.271022	672.75
1589.78055	673.0
1590.290024	674.25
1590.799444	671.5
1591.30881	676.25
1591.818121	671.5
1592.327379	669.25
