1042.414189	693.75
1042.980685	694.0
1043.547124	695.0
1044.113505	695.25
1044.679828	693.75
1045.246093	693.25
1045.8123	695.5
1046.378449	687.25
1046.94454	688.75
1047.510573	689.25
1048.076548	689.0
1048.642465	693.25
1049.208325	691.5
1049.774126	687.0
1050.339869	692.25
1050.905555	691.0
1051.471183	687.25
1052.036752	685.25
1052.602264	686.25
1053.167718	689.0
1053.733114	687.75
1054.298452	687.0
1054.863733	687.5
1055.428955	685.25
1055.994119	688.25
1056.559226	685.25
1057.124275	686.25
1057.689266	687.5
1058.254199	685.25
1058.819074	689.25
1059.383891	679.75
1059.94865	684.5
1060.513352	684.25
1061.077996	684.75
1061.642582	684.25
1062.20711	688.0
1062.77158	683.25
1063.335992	681.25
1063.900347	684.5
1064.464643	684.25
1065.028882	688.25
1065.593063	689.5
1066.157187	684.25
1066.721252	683.25
1067.28526	684.25
1067.84921	680.0
1068.413102	683.75
1068.976936	680.25
1069.540713	686.0
1070.104431	690.0
1070.668092	685.75
1071.231696	682.25
1071.795241	685.5
1072.358729	680.0
1072.922159	682.75
1073.485531	686.5
1074.048845	680.5
1074.612102	684.25
1075.175301	684.75
1075.738442	683.75
1076.301525	683.25
1076.864551	682.5
1077.427519	687.0
1077.990429	685.0
1078.553281	681.75
1079.116076	680.0
1079.678813	683.75
1080.241492	681.25
1080.804114	684.0
1081.366678	678.25
1081.929184	683.25
1082.491633	689.0
1083.054024	682.5
1083.616357	684.75
1084.178632	684.25
1084.74085	683.25
1085.30301	682.75
1085.865113	681.5
1086.427158	681.5
1086.989145	683.0
1087.551074	681.5
1088.112946	682.25
1088.67476	681.25
1089.236517	681.25
1089.798216	684.75
1090.359857	683.25
1090.92144	683.25
1091.482966	682.5
1092.044435	682.75
1092.605845	676.5
1093.167199	682.25
1093.728494	684.75
1094.289732	686.0
1094.850912	679.0
1095.412035	688.5
1095.9731	683.0
1096.534107	685.25
1097.095057	691.5
1097.65595	678.25
1098.216784	681.0
1098.777561	681.25
1099.338281	680.5
1099.898943	681.25
1100.459547	684.0
1101.020094	684.0
1101.580584	679.5
1102.141015	677.5
1102.701389	681.75
1103.261706	680.5
1103.821965	684.5
1104.382167	680.75
1104.942311	677.75
1105.502397	681.75
1106.062426	685.0
1106.622398	683.25
1107.182312	682.75
1107.742168	678.5
1108.301967	680.0
1108.861708	681.75
1109.421392	681.75
1109.981019	683.25
1110.540587	680.0
1111.100099	684.5
1111.659553	683.0
1112.218949	684.75
1112.778288	681.5
1113.33757	684.25
1113.896794	681.0
1114.45596	682.0
1115.015069	679.5
1115.574121	685.0
1116.133115	680.75
1116.692052	682.0
1117.250931	683.25
1117.809753	682.0
1118.368517	681.25
1118.927224	681.25
1119.485873	679.0
1120.044465	683.5
1120.603	681.0
1121.161477	681.0
1121.719897	680.75
1122.278259	683.0
1122.836564	680.5
1123.394812	680.5
1123.953002	681.25
1124.511135	681.5
1125.06921	687.75
1125.627228	680.75
1126.185189	683.25
1126.743092	684.0
1127.300938	680.75
1127.858726	683.75
1128.416457	683.5
1128.974131	687.75
1129.531748	687.0
1130.089307	688.0
1130.646808	685.75
1131.204252	683.75
1131.761639	682.0
1132.318969	683.75
1132.876241	682.5
1133.433456	684.0
1133.990614	680.75
1134.547714	680.75
1135.104757	682.25
1135.661743	680.0
1136.218671	683.5
1136.775542	680.5
1137.332356	682.0
1137.889112	684.0
1138.445811	680.25
1139.002453	680.75
1139.559037	677.25
1140.115565	677.5
1140.672035	678.5
1141.228447	684.5
1141.784803	678.75
1142.341101	682.5
1142.897342	682.5
1143.453525	677.75
1144.009651	679.25
1144.565721	683.5
1145.121732	680.75
1145.677687	681.0
1146.233584	681.0
1146.789424	681.0
1147.345207	680.5
1147.900933	678.25
1148.456601	679.0
1149.012212	676.75
1149.567766	680.25
1150.123263	679.75
1150.678702	681.0
1151.234085	683.25
1151.78941	682.75
1152.344678	681.25
1152.899888	679.5
1153.455042	678.25
1154.010138	676.5
1154.565177	682.0
1155.120159	682.25
1155.675084	680.25
1156.229951	683.25
1156.784762	683.0
1157.339515	677.5
1157.894211	680.5
1158.44885	682.25
1159.003432	680.5
1159.557956	686.75
1160.112424	680.5
1160.666834	684.0
1161.221187	684.75
1161.775483	681.5
1162.329722	681.0
1162.883904	683.0
1163.438029	681.25
1163.992096	681.0
1164.546107	681.75
1165.10006	679.75
1165.653956	681.5
1166.207795	679.0
1166.761577	681.25
1167.315302	681.25
1167.86897	677.75
1168.422581	679.0
1168.976134	681.0
1169.529631	678.0
1170.08307	684.25
1170.636453	678.75
1171.189778	679.75
1171.743046	681.0
1172.296257	679.25
1172.849412	683.75
1173.402509	680.5
1173.955549	685.0
1174.508532	684.25
1175.061458	680.0
1175.614327	679.75
1176.167138	682.5
1176.719893	675.75
1177.272591	681.0
1177.825232	681.0
1178.377816	682.75
1178.930342	675.25
1179.482812	678.25
1180.035225	681.25
1180.587581	680.5
1181.139879	678.75
1181.692121	679.5
1182.244306	681.5
1182.796434	679.5
1183.348504	679.25
1183.900518	678.25
1184.452475	681.25
1185.004375	679.5
1185.556218	678.5
1186.108004	680.0
1186.659733	678.25
1187.211405	679.0
1187.76302	675.75
1188.314578	684.0
1188.866079	677.5
1189.417523	677.0
1189.96891	678.0
1190.520241	679.5
1191.071514	678.75
1191.622731	680.5
1192.17389	680.25
1192.724993	681.75
1193.276039	697.75
1193.827027	677.25
1194.377959	681.0
1194.928834	682.5
1195.479653	682.0
1196.030414	680.0
1196.581118	677.0
1197.131766	682.5
1197.682356	680.25
1198.23289	683.0
1198.783367	677.0
1199.333786	680.5
1199.88415	682.0
1200.434456	678.5
1200.984705	680.75
1201.534898	674.75
1202.085033	680.0
1202.635112	678.5
1203.185134	683.25
1203.735099	679.25
1204.285007	683.75
1204.834859	681.75
1205.384653	681.25
1205.934391	682.25
1206.484072	682.25
1207.033696	681.0
1207.583263	682.0
1208.132774	682.25
1208.682228	683.0
1209.231624	681.75
1209.780965	677.0
1210.330248	678.75
1210.879474	683.5
1211.428644	682.5
1211.977757	683.25
1212.526813	682.5
1213.075813	680.5
1213.624755	681.5
1214.173641	680.25
1214.72247	679.5
1215.271242	684.0
1215.819958	677.0
1216.368617	680.25
1216.917219	684.75
1217.465764	680.25
1218.014253	681.0
1218.562685	679.25
1219.11106	680.25
1219.659378	683.25
1220.20764	682.5
1220.755845	682.0
1221.303993	680.0
1221.852085	679.5
1222.400119	678.25
1222.948097	679.75
1223.496019	680.25
1224.043883	682.0
1224.591691	682.25
1225.139443	680.75
1225.687137	679.25
1226.234775	684.0
1226.782357	683.5
1227.329881	684.25
1227.877349	681.75
1228.42476	679.25
1228.972115	682.0
1229.519413	679.25
1230.066654	683.25
1230.613839	683.5
1231.160967	682.75
1231.708038	685.25
1232.255053	682.0
1232.802011	684.0
1233.348912	682.5
1233.895757	683.25
1234.442545	684.25
1234.989277	678.75
1235.535951	684.5
1236.08257	682.75
1236.629131	683.25
1237.175636	682.75
1237.722085	684.5
1238.268477	684.5
1238.814812	682.0
1239.361091	682.75
1239.907313	680.5
1240.453478	685.0
1240.999587	686.5
1241.54564	684.5
1242.091636	682.75
1242.637575	684.5
1243.183457	686.0
1243.729284	685.75
1244.275053	687.0
1244.820766	685.0
1245.366423	685.25
1245.912022	685.0
1246.457566	679.75
1247.003053	687.5
1247.548483	687.75
1248.093857	689.5
1248.639174	686.5
1249.184435	684.5
1249.729639	691.25
1250.274787	689.5
1250.819878	687.5
1251.364912	689.0
1251.909891	687.0
1252.454812	685.0
1252.999677	687.25
1253.544486	684.75
1254.089238	686.5
1254.633934	681.25
1255.178573	684.0
1255.723156	686.0
1256.267682	682.5
1256.812152	689.75
1257.356565	688.0
1257.900922	686.0
1258.445223	686.0
1258.989467	693.0
1259.533654	692.5
1260.077785	707.75
1260.62186	693.5
1261.165878	690.5
1261.70984	689.25
1262.253745	690.5
1262.797594	691.75
1263.341386	700.5
1263.885123	704.25
1264.428802	717.5
1264.972425	745.0
1265.515992	770.0
1266.059503	770.25
1266.602957	727.5
1267.146354	708.75
1267.689696	700.75
1268.23298	694.5
1268.776209	689.75
1269.319381	694.0
1269.862497	694.0
1270.405556	689.5
1270.948559	688.75
1271.491506	688.5
1272.034396	692.75
1272.57723	689.25
1273.120007	689.0
1273.662728	689.5
1274.205393	687.75
1274.748002	687.0
1275.290554	690.75
1275.83305	689.5
1276.375489	692.25
1276.917872	692.0
1277.460199	688.5
1278.00247	694.25
1278.544684	692.75
1279.086842	695.75
1279.628943	689.75
1280.170989	695.25
1280.712978	698.0
1281.25491	699.75
1281.796787	697.75
1282.338607	709.5
1282.880371	713.5
1283.422078	733.5
1283.963729	766.75
1284.505324	861.5
1285.046863	1155.0
1285.588345	1797.0
1286.129772	1953.0
1286.671142	1239.5
1287.212455	857.75
1287.753713	748.5
1288.294914	724.75
1288.836059	714.75
1289.377147	704.75
1289.91818	701.75
1290.459156	700.75
1291.000076	695.75
1291.54094	698.0
1292.081747	694.25
1292.622499	693.5
1293.163194	690.25
1293.703833	690.0
1294.244415	690.75
1294.784942	688.5
1295.325412	691.5
1295.865826	688.0
1296.406184	692.25
1296.946486	690.25
1297.486731	686.25
1298.026921	688.25
1298.567054	691.0
1299.107131	691.25
1299.647152	689.0
1300.187116	689.25
1300.727025	688.0
1301.266877	689.0
1301.806673	687.25
1302.346413	692.5
1302.886097	688.75
1303.425725	687.0
1303.965297	688.0
1304.504812	689.5
1305.044272	684.25
1305.583675	688.25
1306.123022	691.5
1306.662313	691.0
1307.201548	685.5
1307.740727	689.75
1308.279849	687.25
1308.818916	682.5
1309.357926	687.5
1309.896881	690.5
1310.435779	689.25
1310.974621	685.75
1311.513407	686.25
1312.052137	689.0
1312.590811	688.25
1313.129429	683.75
1313.667991	687.5
1314.206497	686.25
1314.744946	684.5
1315.28334	686.75
1315.821678	687.75
1316.359959	684.5
1316.898184	687.25
1317.436354	689.25
1317.974467	682.75
1318.512525	687.5
1319.050526	685.75
1319.588471	687.5
1320.12636	686.0
1320.664194	687.0
1321.201971	687.0
1321.739692	685.25
1322.277357	683.75
1322.814967	685.5
1323.35252	683.25
1323.890017	694.75
1324.427458	684.25
1324.964843	687.5
1325.502173	685.0
1326.039446	687.0
1326.576663	685.5
1327.113824	691.0
1327.65093	687.5
1328.187979	684.0
1328.724972	679.75
1329.26191	683.25
1329.798791	686.25
1330.335617	681.75
1330.872386	686.75
1331.4091	685.25
1331.945758	684.75
1332.48236	683.75
1333.018905	686.5
1333.555395	690.25
1334.091829	687.0
1334.628207	685.0
1335.164529	687.75
1335.700796	687.75
1336.237006	683.5
1336.77316	686.5
1337.309259	687.5
1337.845301	685.75
1338.381288	684.75
1338.917219	687.75
1339.453094	684.25
1339.988913	685.75
1340.524676	686.25
1341.060383	687.0
1341.596034	682.0
1342.13163	687.5
1342.66717	685.0
1343.202653	682.25
1343.738081	686.75
1344.273453	685.25
1344.80877	684.0
1345.34403	687.25
1345.879235	687.5
1346.414383	688.0
1346.949476	686.0
1347.484513	685.5
1348.019494	682.25
1348.55442	684.0
1349.089289	687.25
1349.624103	687.0
1350.158861	681.5
1350.693563	685.75
1351.228209	686.5
1351.7628	686.5
1352.297334	685.5
1352.831813	686.5
1353.366236	680.75
1353.900604	686.25
1354.434915	687.0
1354.969171	686.75
1355.503371	685.0
1356.037515	686.25
1356.571604	685.0
1357.105636	688.0
1357.639613	688.0
1358.173535	690.5
1358.7074	689.75
1359.24121	685.25
1359.774964	684.25
1360.308662	690.25
1360.842304	689.0
1361.375891	685.75
1361.909422	687.0
1362.442897	688.0
1362.976317	688.0
1363.50968	689.5
1364.042989	687.25
1364.576241	688.5
1365.109438	685.0
1365.642579	683.5
1366.175664	689.75
1366.708693	691.5
1367.241667	693.5
1367.774585	689.5
1368.307448	689.75
1368.840255	687.0
1369.373006	689.0
1369.905701	691.25
1370.438341	706.0
1370.970925	733.25
1371.503454	716.75
1372.035926	693.25
1372.568344	688.5
1373.100705	686.25
1373.633011	684.75
1374.165261	690.25
1374.697456	688.0
1375.229595	687.5
1375.761678	688.5
1376.293705	696.0
1376.825677	686.5
1377.357594	691.25
1377.889455	689.25
1378.42126	690.0
1378.953009	694.0
1379.484703	690.5
1380.016342	693.25
1380.547924	692.75
1381.079452	696.5
1381.610923	695.0
1382.142339	693.25
1382.673699	700.5
1383.205004	703.25
1383.736253	700.5
1384.267447	702.5
1384.798585	706.0
1385.329668	709.25
1385.860695	718.25
1386.391666	735.5
1386.922582	757.5
1387.453442	794.75
1387.984247	911.0
1388.514996	1459.5
1389.04569	2930.5
1389.576328	2746.0
1390.10691	1289.5
1390.637437	852.25
1391.167909	763.75
1391.698325	739.0
1392.228685	721.5
1392.75899	713.5
1393.28924	705.25
1393.819434	702.0
1394.349572	696.0
1394.879655	696.5
1395.409683	694.5
1395.939655	695.0
1396.469571	696.25
1396.999432	696.75
1397.529237	693.25
1398.058987	690.0
1398.588682	694.75
1399.118321	694.25
1399.647905	689.25
1400.177433	695.0
1400.706906	691.5
1401.236323	691.25
1401.765685	692.0
1402.294991	684.0
1402.824242	686.5
1403.353437	691.5
1403.882577	688.0
1404.411662	692.5
1404.940691	692.0
1405.469665	692.0
1405.998583	691.0
1406.527446	692.75
1407.056253	691.75
1407.585005	695.75
1408.113702	699.5
1408.642343	709.75
1409.170929	722.25
1409.69946	751.0
1410.227935	812.25
1410.756354	858.25
1411.284719	787.0
1411.813028	731.75
1412.341281	707.75
1412.869479	696.75
1413.397622	691.0
1413.92571	691.0
1414.453742	693.25
1414.981718	688.25
1415.50964	702.0
1416.037506	687.5
1416.565316	685.5
1417.093072	687.25
1417.620772	689.25
1418.148416	689.0
1418.676005	688.5
1419.203539	687.75
1419.731018	686.25
1420.258441	685.0
1420.785809	684.0
1421.313122	683.75
1421.840379	681.75
1422.367582	686.25
1422.894728	688.25
1423.42182	687.0
1423.948856	688.25
1424.475837	691.25
1425.002762	688.75
1425.529633	685.75
1426.056448	691.0
1426.583207	691.5
1427.109912	695.5
1427.636561	688.0
1428.163155	691.75
1428.689694	684.0
1429.216177	686.25
1429.742605	682.0
1430.268978	686.0
1430.795296	685.25
1431.321558	684.25
1431.847765	684.5
1432.373917	685.75
1432.900014	683.75
1433.426056	685.25
1433.952042	678.75
1434.477973	685.5
1435.003849	686.75
1435.529669	679.5
1436.055435	681.75
1436.581145	683.75
1437.1068	685.25
1437.632399	682.0
1438.157944	683.25
1438.683433	683.25
1439.208868	681.5
1439.734247	685.75
1440.25957	682.25
1440.784839	681.5
1441.310053	682.25
1441.835211	682.25
1442.360314	682.5
1442.885362	681.5
1443.410355	682.75
1443.935292	682.0
1444.460175	678.25
1444.985002	680.75
1445.509774	682.75
1446.034491	683.25
1446.559153	680.25
1447.08376	684.75
1447.608312	684.0
1448.132808	683.5
1448.65725	681.5
1449.181636	682.5
1449.705967	682.25
1450.230243	678.75
1450.754464	681.0
1451.27863	682.0
1451.802741	679.75
1452.326797	683.5
1452.850797	675.75
1453.374743	682.5
1453.898633	681.5
1454.422468	680.0
1454.946249	680.5
1455.469974	679.75
1455.993644	682.5
1456.517259	677.5
1457.040819	678.0
1457.564324	676.5
1458.087773	681.25
1458.611168	678.5
1459.134508	677.0
1459.657793	681.5
1460.181022	680.5
1460.704197	675.75
1461.227316	679.25
1461.750381	677.25
1462.27339	676.75
1462.796345	683.0
1463.319244	727.75
1463.842089	718.5
1464.364878	685.75
1464.887613	678.75
1465.410292	680.0
1465.932916	677.0
1466.455486	676.75
1466.978	677.25
1467.50046	681.5
1468.022864	682.25
1468.545214	681.0
1469.067508	680.75
1469.589748	681.75
1470.111932	679.0
1470.634062	679.5
1471.156136	678.25
1471.678156	678.75
1472.20012	675.5
1472.72203	682.25
1473.243885	675.5
1473.765685	679.0
1474.28743	677.0
1474.80912	677.75
1475.330755	677.5
1475.852335	677.0
1476.37386	676.75
1476.89533	680.0
1477.416745	677.75
1477.938106	679.0
1478.459411	680.5
1478.980662	677.25
1479.501857	681.5
1480.022998	681.0
1480.544084	679.75
1481.065115	678.75
1481.586091	675.75
1482.107012	678.5
1482.627878	676.75
1483.14869	679.0
1483.669446	676.5
1484.190148	679.5
1484.710794	678.25
1485.231386	678.5
1485.751923	676.25
1486.272406	678.5
1486.792833	675.0
1487.313205	677.75
1487.833523	678.75
1488.353786	675.5
1488.873994	677.75
1489.394147	678.5
1489.914245	677.75
1490.434288	677.75
1490.954277	680.5
1491.474211	675.75
1491.99409	675.75
1492.513914	674.0
1493.033683	677.75
1493.553398	679.0
1494.073057	675.75
1494.592662	679.5
1495.112212	677.75
1495.631708	676.0
1496.151148	676.25
1496.670534	676.75
1497.189865	679.5
1497.709141	676.25
1498.228362	675.75
1498.747529	679.0
1499.266641	678.5
1499.785698	681.25
1500.3047	675.75
1500.823648	677.5
1501.34254	677.25
1501.861379	680.0
1502.380162	675.0
1502.89889	675.0
1503.417564	676.75
1503.936183	677.0
1504.454748	674.75
1504.973257	676.25
1505.491712	680.25
1506.010112	677.5
1506.528458	678.75
1507.046748	675.75
1507.564984	679.5
1508.083166	676.0
1508.601292	675.5
1509.119364	680.5
1509.637381	675.5
1510.155344	680.75
1510.673252	689.25
1511.191105	677.0
1511.708903	673.75
1512.226647	678.25
1512.744336	677.25
1513.261971	676.0
1513.77955	678.75
1514.297076	679.5
1514.814546	678.5
1515.331962	677.25
1515.849323	675.5
1516.366629	678.25
1516.883881	678.5
1517.401078	677.5
1517.918221	678.25
1518.435309	676.5
1518.952342	679.5
1519.469321	676.25
1519.986245	679.0
1520.503114	674.75
1521.019929	679.5
1521.536689	678.75
1522.053395	679.75
1522.570046	675.25
1523.086642	678.5
1523.603184	677.25
1524.119671	680.5
1524.636103	678.75
1525.152481	679.25
1525.668805	682.75
1526.185073	700.5
1527.217447	686.5
1527.733552	679.5
1528.249603	678.5
1528.765599	676.5
1529.28154	677.25
1529.797427	676.0
1530.313259	678.5
1530.829037	677.5
1531.34476	680.25
1531.860429	679.75
1532.376043	677.5
1532.891602	680.25
1533.407107	680.5
1533.922558	679.75
1534.437954	676.0
1534.953295	679.25
1535.468582	676.5
1535.983815	677.0
1536.498993	677.5
1537.014116	679.0
1537.529185	676.75
1538.044199	676.5
1538.559159	679.5
1539.074064	680.5
1539.588915	679.75
1540.103712	681.25
1540.618454	679.0
1541.133141	680.75
1541.647774	676.0
1542.162353	681.0
1542.676877	676.5
1543.191346	677.25
1543.705761	675.75
1544.220122	676.0
1544.734428	681.75
1545.24868	677.75
1545.762877	678.5
1546.27702	679.0
1546.791109	679.5
1547.305143	678.5
1547.819122	680.0
1548.333047	678.25
1548.846918	685.5
1549.360734	681.75
1549.874496	677.0
1550.388204	677.25
1550.901857	678.5
1551.415455	676.75
1551.929	679.75
1552.442489	676.5
1552.955925	678.0
1553.469306	679.0
1553.982632	679.5
1554.495905	679.5
1555.009123	681.5
1555.522286	675.5
1556.035395	679.25
1556.54845	680.25
1557.06145	679.75
1557.574396	680.25
1558.087288	679.75
1558.600125	681.5
1559.112908	677.0
1559.625637	681.0
1560.138311	676.75
1560.650931	678.5
1561.163497	678.25
1561.676008	683.0
1562.188465	681.5
1562.700867	681.5
1563.213216	681.25
1563.725509	676.5
1564.237749	679.25
1564.749934	684.25
1565.262065	682.0
1565.774142	684.25
1566.286164	685.25
1566.798132	688.5
1567.310046	681.75
1567.821906	688.25
1568.333711	683.75
1568.845462	687.25
1569.357158	685.25
1569.868801	682.5
1570.380389	679.25
1570.891922	680.25
1571.403402	682.75
1571.914827	680.75
1572.426198	676.75
1572.937515	676.5
1573.448777	677.75
1573.959985	679.5
1574.471139	677.5
1574.982239	680.5
1575.493285	677.75
1576.004276	682.25
1576.515213	675.75
1577.026096	677.75
1577.536924	677.5
1578.047698	676.75
1578.558419	674.75
1579.069084	678.25
1579.579696	679.0
1580.090254	681.25
1580.600757	679.5
1581.111206	676.75
1581.621601	678.0
1582.131941	680.75
1582.642228	674.0
1583.15246	679.0
1583.662638	679.75
1584.172762	680.75
1584.682832	678.25
1585.192847	676.75
1585.702809	676.25
1586.212716	680.5
1586.722569	680.0
1587.232368	674.75
1587.742113	679.5
1588.251803	677.0
1588.76144	683.75
1589.271022	676.0
1589.78055	677.5
1590.290024	674.0
1590.799444	683.0
1591.30881	679.0
1591.818121	678.25
1592.327379	672.75
