1042.414189	675.5
1042.980685	678.5
1043.547124	676.5
1044.113505	675.0
1044.679828	675.5
1045.246093	675.25
1045.8123	675.5
1046.378449	676.0
1046.94454	675.5
1047.510573	672.5
1048.076548	674.0
1048.642465	672.0
1049.208325	674.25
1049.774126	671.5
1050.339869	670.75
1050.905555	670.5
1051.471183	672.0
1052.036752	670.75
1052.602264	671.5
1053.167718	673.0
1053.733114	674.25
1054.298452	672.0
1054.863733	672.75
1055.428955	673.75
1055.994119	668.5
1056.559226	672.5
1057.124275	670.5
1057.689266	670.75
1058.254199	669.25
1058.819074	669.5
1059.383891	668.25
1059.94865	670.75
1060.513352	666.5
1061.077996	669.0
1061.642582	667.25
1062.20711	668.5
1062.77158	670.0
1063.335992	669.75
1063.900347	669.75
1064.464643	668.0
1065.028882	669.25
1065.593063	669.25
1066.157187	670.25
1066.721252	668.0
1067.28526	670.75
1067.84921	672.5
1068.413102	666.75
1068.976936	664.75
1069.540713	667.0
1070.104431	676.0
1070.668092	668.5
1071.231696	666.0
1071.795241	668.25
1072.358729	664.75
1072.922159	668.75
1073.485531	666.75
1074.048845	668.75
1074.612102	667.0
1075.175301	668.25
1075.738442	668.25
1076.301525	666.25
1076.864551	667.75
1077.427519	665.25
1077.990429	668.0
1078.553281	667.25
1079.116076	667.25
1079.678813	667.25
1080.241492	668.0
1080.804114	669.25
1081.366678	669.25
1081.929184	666.5
1082.491633	667.5
1083.054024	669.0
1083.616357	668.25
1084.178632	667.25
1084.74085	670.5
1085.30301	668.5
1085.865113	667.0
1086.427158	669.25
1086.989145	667.5
1087.551074	670.75
1088.112946	666.5
1088.67476	667.5
1089.236517	665.75
1089.798216	666.5
1090.359857	667.5
1090.92144	666.75
1091.482966	668.25
1092.044435	667.5
1092.605845	670.25
1093.167199	669.0
1093.728494	667.5
1094.289732	667.75
1094.850912	664.25
1095.412035	679.0
1095.9731	666.5
1096.534107	667.25
1097.095057	677.25
1097.65595	667.25
1098.216784	665.75
1098.777561	667.75
1099.338281	668.75
1099.898943	668.75
1100.459547	664.5
1101.020094	667.5
1101.580584	663.75
1102.141015	669.25
1102.701389	666.0
1103.261706	666.5
1103.821965	668.75
1104.382167	666.5
1104.942311	666.0
1105.502397	666.0
1106.062426	667.5
1106.622398	668.5
1107.182312	668.0
1107.742168	667.75
1108.301967	664.25
1108.861708	666.5
1109.421392	668.25
1109.981019	668.5
1110.540587	669.5
1111.100099	668.5
1111.659553	666.5
1112.218949	670.25
1112.778288	666.5
1113.33757	665.75
1113.896794	667.0
1114.45596	667.25
1115.015069	668.75
1115.574121	669.25
1116.133115	668.75
1116.692052	667.0
1117.250931	670.25
1117.809753	666.5
1118.368517	667.5
1118.927224	668.5
1119.485873	664.25
1120.044465	666.75
1120.603	666.0
1121.161477	668.25
1121.719897	670.25
1122.278259	670.75
1122.836564	669.0
1123.394812	667.25
1123.953002	668.5
1124.511135	665.0
1125.06921	665.5
1125.627228	667.75
1126.185189	670.0
1126.743092	668.75
1127.300938	667.5
1127.858726	672.0
1128.416457	667.75
1128.974131	667.5
1129.531748	665.25
1130.089307	666.0
1130.646808	670.25
1131.204252	670.75
1131.761639	665.0
1132.318969	669.0
1132.876241	667.25
1133.433456	668.5
1133.990614	667.25
1134.547714	666.75
1135.104757	665.25
1135.661743	669.0
1136.218671	670.5
1136.775542	668.25
1137.332356	667.5
1137.889112	665.25
1138.445811	667.75
1139.002453	668.75
1139.559037	666.25
1140.115565	666.5
1140.672035	669.25
1141.228447	667.25
1141.784803	667.25
1142.341101	665.0
1142.897342	667.25
1143.453525	670.0
1144.009651	669.5
1144.565721	667.0
1145.121732	667.0
1145.677687	665.0
1146.233584	666.0
1146.789424	667.75
1147.345207	668.25
1147.900933	668.25
1148.456601	666.5
1149.012212	667.0
1149.567766	666.0
1150.123263	665.5
1150.678702	668.25
1151.234085	666.25
1151.78941	666.5
1152.344678	670.25
1152.899888	665.75
1153.455042	669.75
1154.010138	663.75
1154.565177	670.25
1155.120159	669.0
1155.675084	667.0
1156.229951	667.0
1156.784762	669.25
1157.339515	668.5
1157.894211	666.75
1158.44885	668.5
1159.003432	667.25
1159.557956	667.75
1160.112424	668.25
1160.666834	667.0
1161.221187	666.5
1161.775483	664.0
1162.329722	668.5
1162.883904	667.75
1163.438029	668.5
1163.992096	668.25
1164.546107	669.0
1165.10006	664.75
1165.653956	668.25
1166.207795	663.75
1166.761577	666.5
1167.315302	664.5
1167.86897	668.75
1168.422581	665.25
1168.976134	668.0
1169.529631	667.75
1170.08307	668.75
1170.636453	667.25
1171.189778	665.0
1171.743046	664.25
1172.296257	665.75
1172.849412	664.0
1173.402509	666.5
1173.955549	670.0
1174.508532	668.25
1175.061458	669.75
1175.614327	665.25
1176.167138	668.5
1176.719893	667.0
1177.272591	664.25
1177.825232	667.75
1178.377816	669.5
1178.930342	668.5
1179.482812	667.5
1180.035225	666.5
1180.587581	664.5
1181.139879	664.0
1181.692121	666.25
1182.244306	667.5
1182.796434	667.0
1183.348504	665.0
1183.900518	669.5
1184.452475	669.5
1185.004375	668.0
1185.556218	664.5
1186.108004	669.75
1186.659733	669.5
1187.211405	668.5
1187.76302	667.75
1188.314578	667.5
1188.866079	666.0
1189.417523	667.0
1189.96891	666.0
1190.520241	667.5
1191.071514	666.75
1191.622731	666.25
1192.17389	665.75
1192.724993	667.75
1193.276039	691.25
1193.827027	665.75
1194.377959	664.5
1194.928834	670.5
1195.479653	668.5
1196.030414	664.25
1196.581118	668.25
1197.131766	668.0
1197.682356	671.25
1198.23289	668.25
1198.783367	666.75
1199.333786	668.25
1199.88415	668.75
1200.434456	667.75
1200.984705	667.75
1201.534898	668.0
1202.085033	665.5
1202.635112	668.5
1203.185134	667.0
1203.735099	667.75
1204.285007	668.25
1204.834859	668.25
1205.384653	668.0
1205.934391	669.5
1206.484072	668.75
1207.033696	667.0
1207.583263	668.0
1208.132774	668.0
1208.682228	666.5
1209.231624	669.5
1209.780965	669.25
1210.330248	665.0
1210.879474	668.5
1211.428644	667.25
1211.977757	669.0
1212.526813	667.25
1213.075813	669.75
1213.624755	668.0
1214.173641	668.25
1214.72247	668.75
1215.271242	669.0
1215.819958	669.5
1216.368617	669.0
1216.917219	666.75
1217.465764	670.5
1218.014253	669.0
1218.562685	667.0
1219.11106	666.0
1219.659378	670.0
1220.20764	666.0
1220.755845	665.5
1221.303993	669.5
1221.852085	667.0
1222.400119	667.75
1222.948097	668.75
1223.496019	669.75
1224.043883	667.0
1224.591691	669.25
1225.139443	668.75
1225.687137	670.25
1226.234775	668.75
1226.782357	668.75
1227.329881	667.75
1227.877349	666.0
1228.42476	672.5
1228.972115	667.0
1229.519413	668.75
1230.066654	668.0
1230.613839	671.0
1231.160967	668.75
1231.708038	671.5
1232.255053	667.0
1232.802011	666.25
1233.348912	667.5
1233.895757	668.0
1234.442545	666.75
1234.989277	667.25
1235.535951	667.0
1236.08257	669.5
1236.629131	669.5
1237.175636	667.0
1237.722085	670.25
1238.268477	667.75
1238.814812	666.75
1239.361091	669.25
1239.907313	668.25
1240.453478	665.5
1240.999587	668.5
1241.54564	669.25
1242.091636	665.75
1242.637575	667.75
1243.183457	666.25
1243.729284	667.0
1244.275053	670.0
1244.820766	668.5
1245.366423	665.5
1245.912022	670.0
1246.457566	666.5
1247.003053	671.75
1247.548483	667.0
1248.093857	668.5
1248.639174	668.0
1249.184435	668.5
1249.729639	667.5
1250.274787	671.5
1250.819878	664.0
1251.364912	667.25
1251.909891	669.5
1252.454812	667.5
1252.999677	669.75
1253.544486	665.75
1254.089238	668.75
1254.633934	664.75
1255.178573	670.25
1255.723156	668.25
1256.267682	665.25
1256.812152	669.0
1257.356565	671.5
1257.900922	669.0
1258.445223	670.75
1258.989467	668.25
1259.533654	668.75
1260.077785	681.5
1260.62186	670.25
1261.165878	669.0
1261.70984	670.5
1262.253745	671.0
1262.797594	667.5
1263.341386	672.75
1263.885123	671.5
1264.428802	674.0
1264.972425	679.0
1265.515992	684.5
1266.059503	683.5
1266.602957	676.75
1267.146354	675.5
1267.689696	671.0
1268.23298	672.5
1268.776209	668.25
1269.319381	672.0
1269.862497	669.25
1270.405556	665.5
1270.948559	671.75
1271.491506	668.75
1272.034396	669.0
1272.57723	669.75
1273.120007	667.5
1273.662728	668.0
1274.205393	667.25
1274.748002	667.75
1275.290554	670.75
1275.83305	669.75
1276.375489	672.25
1276.917872	666.5
1277.460199	669.25
1278.00247	666.75
1278.544684	671.75
1279.086842	670.0
1279.628943	670.5
1280.170989	668.75
1280.712978	668.0
1281.25491	671.0
1281.796787	672.5
1282.338607	673.5
1282.880371	674.25
1283.422078	678.0
1283.963729	688.0
1284.505324	712.0
1285.046863	782.25
1285.588345	895.5
1286.129772	880.25
1286.671142	754.25
1287.212455	699.25
1287.753713	679.5
1288.294914	676.75
1288.836059	672.0
1289.377147	670.75
1289.91818	666.5
1290.459156	671.0
1291.000076	669.0
1291.54094	671.25
1292.081747	668.5
1292.622499	668.0
1293.163194	670.0
1293.703833	668.5
1294.244415	667.75
1294.784942	668.75
1295.325412	670.0
1295.865826	668.0
1296.406184	670.0
1296.946486	668.75
1297.486731	668.0
1298.026921	670.0
1298.567054	667.25
1299.107131	667.25
1299.647152	668.0
1300.187116	667.25
1300.727025	668.0
1301.266877	667.25
1301.806673	666.0
1302.346413	670.0
1302.886097	666.0
1303.425725	670.0
1303.965297	668.25
1304.504812	666.75
1305.044272	666.75
1305.583675	670.5
1306.123022	666.25
1306.662313	665.5
1307.201548	668.75
1307.740727	671.75
1308.279849	667.5
1308.818916	667.25
1309.357926	670.75
1309.896881	668.25
1310.435779	669.5
1310.974621	666.0
1311.513407	668.0
1312.052137	668.0
1312.590811	666.25
1313.129429	667.5
1313.667991	665.75
1314.206497	669.25
1314.744946	667.75
1315.28334	667.5
1315.821678	670.25
1316.359959	668.25
1316.898184	670.25
1317.436354	667.75
1317.974467	667.25
1318.512525	668.25
1319.050526	666.25
1319.588471	666.75
1320.12636	668.25
1320.664194	665.5
1321.201971	668.25
1321.739692	664.25
1322.277357	667.5
1322.814967	665.25
1323.35252	666.25
1323.890017	670.75
1324.427458	665.75
1324.964843	666.75
1325.502173	666.5
1326.039446	666.75
1326.576663	665.0
1327.113824	668.25
1327.65093	667.25
1328.187979	667.75
1328.724972	668.5
1329.26191	666.5
1329.798791	667.0
1330.335617	664.75
1330.872386	668.0
1331.4091	663.5
1331.945758	666.0
1332.48236	667.75
1333.018905	667.0
1333.555395	669.75
1334.091829	667.75
1334.628207	665.75
1335.164529	666.5
1335.700796	669.0
1336.237006	663.0
1336.77316	666.75
1337.309259	666.75
1337.845301	669.25
1338.381288	664.5
1338.917219	665.25
1339.453094	664.75
1339.988913	667.0
1340.524676	666.0
1341.060383	665.75
1341.596034	670.5
1342.13163	668.25
1342.66717	669.5
1343.202653	667.0
1343.738081	665.75
1344.273453	668.75
1344.80877	670.0
1345.34403	664.0
1345.879235	668.5
1346.414383	664.5
1346.949476	668.0
1347.484513	667.75
1348.019494	668.0
1348.55442	667.25
1349.089289	666.75
1349.624103	664.75
1350.158861	665.5
1350.693563	663.5
1351.228209	664.25
1351.7628	666.75
1352.297334	667.25
1352.831813	669.0
1353.366236	666.0
1353.900604	670.0
1354.434915	666.0
1354.969171	667.25
1355.503371	668.75
1356.037515	667.75
1356.571604	669.0
1357.105636	666.5
1357.639613	666.25
1358.173535	668.25
1358.7074	670.0
1359.24121	667.5
1359.774964	665.25
1360.308662	667.25
1360.842304	666.75
1361.375891	667.5
1361.909422	667.75
1362.442897	667.75
1362.976317	669.5
1363.50968	667.25
1364.042989	668.0
1364.576241	665.5
1365.109438	669.75
1365.642579	667.0
1366.175664	668.75
1366.708693	670.0
1367.241667	667.0
1367.774585	667.25
1368.307448	670.0
1368.840255	667.0
1369.373006	667.25
1369.905701	667.5
1370.438341	671.75
1370.970925	672.75
1371.503454	667.75
1372.035926	670.5
1372.568344	667.75
1373.100705	670.5
1373.633011	672.0
1374.165261	666.75
1374.697456	669.0
1375.229595	668.75
1375.761678	671.0
1376.293705	667.25
1376.825677	670.25
1377.357594	670.0
1377.889455	667.0
1378.42126	664.25
1378.953009	670.5
1379.484703	667.25
1380.016342	668.0
1380.547924	668.0
1381.079452	668.0
1381.610923	670.0
1382.142339	669.25
1382.673699	666.0
1383.205004	668.5
1383.736253	672.0
1384.267447	671.25
1384.798585	671.0
1385.329668	671.75
1385.860695	675.5
1386.391666	675.25
1386.922582	681.5
1387.453442	688.5
1387.984247	721.25
1388.514996	844.25
1389.04569	1105.75
1389.576328	1004.75
1390.10691	759.75
1390.637437	695.25
1391.167909	680.5
1391.698325	674.5
1392.228685	673.75
1392.75899	669.25
1393.28924	670.5
1393.819434	670.75
1394.349572	671.5
1394.879655	665.75
1395.409683	669.0
1395.939655	672.25
1396.469571	668.25
1396.999432	667.75
1397.529237	669.5
1398.058987	668.0
1398.588682	669.25
1399.118321	667.5
1399.647905	666.75
1400.177433	667.25
1400.706906	668.25
1401.236323	668.75
1401.765685	667.75
1402.294991	667.75
1402.824242	664.5
1403.353437	667.5
1403.882577	668.75
1404.411662	670.5
1404.940691	668.5
1405.469665	669.75
1405.998583	670.25
1406.527446	669.75
1407.056253	671.0
1407.585005	669.75
1408.113702	670.25
1408.642343	670.25
1409.170929	675.5
1409.69946	681.0
1410.227935	691.25
1410.756354	696.25
1411.284719	687.5
1411.813028	673.75
1412.341281	672.5
1412.869479	668.25
1413.397622	670.75
1413.92571	667.75
1414.453742	668.25
1414.981718	668.75
1415.50964	678.75
1416.037506	666.75
1416.565316	669.75
1417.093072	670.0
1417.620772	668.0
1418.148416	664.75
1418.676005	667.5
1419.203539	667.75
1419.731018	667.5
1420.258441	666.25
1420.785809	667.25
1421.313122	664.75
1421.840379	666.75
1422.367582	667.25
1422.894728	666.75
1423.42182	666.25
1423.948856	666.0
1424.475837	668.75
1425.002762	666.25
1425.529633	669.5
1426.056448	667.0
1426.583207	667.75
1427.109912	665.25
1427.636561	666.5
1428.163155	666.0
1428.689694	668.75
1429.216177	669.0
1429.742605	667.75
1430.268978	665.75
1430.795296	663.5
1431.321558	664.5
1431.847765	667.75
1432.373917	663.5
1432.900014	668.0
1433.426056	666.5
1433.952042	668.0
1434.477973	666.5
1435.003849	667.25
1435.529669	666.0
1436.055435	668.5
1436.581145	664.5
1437.1068	666.5
1437.632399	668.25
1438.157944	666.75
1438.683433	667.75
1439.208868	667.0
1439.734247	668.5
1440.25957	666.5
1440.784839	664.75
1441.310053	669.25
1441.835211	663.0
1442.360314	662.25
1442.885362	665.5
1443.410355	666.75
1443.935292	665.0
1444.460175	664.75
1444.985002	667.0
1445.509774	667.5
1446.034491	667.5
1446.559153	667.0
1447.08376	663.0
1447.608312	667.0
1448.132808	664.75
1448.65725	665.5
1449.181636	661.5
1449.705967	667.75
1450.230243	667.75
1450.754464	667.0
1451.27863	670.5
1451.802741	664.5
1452.326797	665.5
1452.850797	665.5
1453.374743	664.75
1453.898633	664.25
1454.422468	665.5
1454.946249	663.5
1455.469974	664.5
1455.993644	666.75
1456.517259	666.5
1457.040819	664.0
1457.564324	666.0
1458.087773	666.75
1458.611168	667.5
1459.134508	667.0
1459.657793	664.25
1460.181022	665.75
1460.704197	669.25
1461.227316	667.75
1461.750381	666.75
1462.27339	663.5
1462.796345	669.0
1463.319244	667.25
1463.842089	669.0
1464.364878	668.5
1464.887613	664.75
1465.410292	667.5
1465.932916	667.0
1466.455486	663.5
1466.978	667.25
1467.50046	666.0
1468.022864	665.25
1468.545214	664.75
1469.067508	664.25
1469.589748	664.25
1470.111932	668.5
1470.634062	662.75
1471.156136	666.0
1471.678156	664.5
1472.20012	668.75
1472.72203	665.0
1473.243885	665.25
1473.765685	665.0
1474.28743	663.5
1474.80912	666.5
1475.330755	664.25
1475.852335	665.25
1476.37386	666.25
1476.89533	662.0
1477.416745	667.25
1477.938106	666.5
1478.459411	665.0
1478.980662	664.25
1479.501857	663.0
1480.022998	663.25
1480.544084	665.5
1481.065115	666.75
1481.586091	664.5
1482.107012	665.25
1482.627878	664.5
1483.14869	667.0
1483.669446	665.5
1484.190148	667.0
1484.710794	664.25
1485.231386	663.5
1485.751923	664.75
1486.272406	667.5
1486.792833	668.0
1487.313205	664.5
1487.833523	663.5
1488.353786	666.0
1488.873994	664.25
1489.394147	664.75
1489.914245	663.75
1490.434288	667.25
1490.954277	665.75
1491.474211	666.25
1491.99409	667.5
1492.513914	666.0
1493.033683	663.75
1493.553398	665.5
1494.073057	664.0
1494.592662	666.0
1495.112212	664.5
1495.631708	664.75
1496.151148	660.75
1496.670534	666.75
1497.189865	664.0
1497.709141	665.25
1498.228362	666.75
1498.747529	666.5
1499.266641	663.75
1499.785698	674.0
1500.3047	665.75
1500.823648	665.25
1501.34254	664.25
1501.861379	662.5
1502.380162	667.5
1502.89889	664.0
1503.417564	685.5
1504.454748	674.0
1504.973257	666.5
1505.491712	664.5
1506.010112	667.25
1506.528458	666.5
1507.046748	667.25
1507.564984	666.75
1508.083166	664.25
1508.601292	663.5
1509.119364	666.75
1509.637381	665.25
1510.155344	667.25
1510.673252	673.5
1511.191105	665.5
1511.708903	666.25
1512.226647	667.25
1512.744336	667.0
1513.261971	663.75
1513.77955	666.5
1514.297076	667.25
1514.814546	663.0
1515.331962	666.0
1515.849323	665.25
1516.366629	665.75
1516.883881	664.75
1517.401078	664.0
1517.918221	666.25
1518.435309	664.75
1518.952342	663.25
1519.469321	667.0
1519.986245	663.0
1520.503114	665.25
1521.019929	665.5
1521.536689	662.0
1522.053395	665.75
1522.570046	663.5
1523.086642	666.25
1523.603184	664.75
1524.119671	667.5
1524.636103	667.75
1525.152481	665.25
1525.668805	666.25
1526.185073	665.25
1526.701288	665.5
1527.217447	666.0
1527.733552	664.5
1528.249603	666.25
1528.765599	664.0
1529.28154	664.0
1529.797427	668.75
1530.313259	666.25
1530.829037	666.75
1531.34476	666.25
1531.860429	662.25
1532.376043	666.0
1532.891602	662.75
1533.407107	664.75
1533.922558	664.75
1534.437954	662.25
1534.953295	667.25
1535.468582	667.0
1535.983815	661.75
1536.498993	665.5
1537.014116	664.5
1537.529185	667.5
1538.044199	665.5
1538.559159	664.75
1539.074064	666.0
1539.588915	664.75
1540.103712	665.5
1540.618454	663.0
1541.133141	666.25
1541.647774	663.75
1542.162353	663.25
1542.676877	664.75
1543.191346	662.75
1543.705761	665.0
1544.220122	664.5
1544.734428	665.0
1545.24868	664.5
1545.762877	663.75
1546.27702	663.25
1546.791109	664.75
1547.305143	661.0
1547.819122	664.25
1548.333047	665.25
1548.846918	663.5
1549.360734	666.0
1549.874496	666.0
1550.388204	663.75
1550.901857	662.0
1551.415455	664.0
1551.929	663.5
1552.442489	663.25
1552.955925	666.25
1553.469306	662.25
1553.982632	664.25
1554.495905	664.75
1555.009123	664.0
1555.522286	664.0
1556.035395	665.0
1556.54845	665.75
1557.06145	662.75
1557.574396	665.0
1558.087288	665.25
1558.600125	664.5
1559.112908	663.0
1559.625637	665.25
1560.138311	663.0
1560.650931	662.75
1561.163497	664.5
1561.676008	665.0
1562.188465	665.25
1562.700867	663.75
1563.213216	664.25
1563.725509	664.25
1564.237749	662.25
1564.749934	664.5
1565.262065	667.25
1565.774142	661.75
1566.286164	664.25
1566.798132	665.25
1567.310046	666.25
1567.821906	666.25
1568.333711	665.5
1568.845462	665.75
1569.357158	664.75
1569.868801	664.25
1570.380389	663.0
1570.891922	663.0
1571.403402	666.75
1571.914827	667.0
1572.426198	661.75
1572.937515	662.75
1573.448777	661.5
1573.959985	664.5
1574.471139	663.75
1574.982239	664.0
1575.493285	663.5
1576.004276	665.0
1576.515213	665.5
1577.026096	663.0
1577.536924	663.0
1578.047698	663.75
1578.558419	663.25
1579.069084	664.75
1579.579696	665.0
1580.090254	664.75
1580.600757	663.75
1581.111206	666.0
1581.621601	661.75
1582.131941	666.0
1582.642228	665.25
1583.15246	664.25
1583.662638	662.0
1584.172762	663.25
1584.682832	664.5
1585.192847	663.75
1585.702809	663.25
1586.212716	667.25
1586.722569	664.25
1587.232368	664.75
1587.742113	662.75
1588.251803	663.5
1588.76144	664.75
1589.271022	661.0
1589.78055	664.25
1590.290024	664.25
1590.799444	665.75
1591.30881	662.75
1591.818121	664.75
1592.327379	665.0
