1042.414189	689.25
1042.980685	686.75
1043.547124	687.0
1044.113505	689.25
1044.679828	682.75
1045.246093	687.5
1045.8123	689.25
1046.378449	685.5
1046.94454	684.5
1047.510573	685.5
1048.076548	684.25
1048.642465	684.75
1049.208325	682.75
1049.774126	678.75
1050.339869	685.75
1050.905555	682.0
1051.471183	683.25
1052.036752	686.0
1052.602264	680.75
1053.167718	683.5
1053.733114	683.25
1054.298452	681.5
1054.863733	683.75
1055.428955	678.0
1055.994119	682.0
1056.559226	681.25
1057.124275	678.5
1057.689266	679.75
1058.254199	682.0
1058.819074	677.0
1059.383891	679.0
1059.94865	681.75
1060.513352	676.75
1061.077996	681.75
1061.642582	680.5
1062.20711	682.0
1062.77158	680.25
1063.335992	681.25
1063.900347	678.0
1064.464643	680.75
1065.028882	681.0
1065.593063	681.25
1066.157187	678.5
1066.721252	677.5
1067.28526	675.75
1067.84921	676.75
1068.413102	674.5
1068.976936	679.25
1069.540713	676.25
1070.104431	686.0
1070.668092	675.0
1071.231696	677.5
1071.795241	679.25
1072.358729	678.25
1072.922159	680.5
1073.485531	678.0
1074.048845	679.25
1074.612102	680.75
1075.175301	678.5
1075.738442	677.75
1076.301525	676.75
1076.864551	674.75
1077.427519	679.75
1077.990429	680.0
1078.553281	676.75
1079.116076	677.25
1079.678813	674.0
1080.241492	675.0
1080.804114	676.25
1081.366678	678.5
1081.929184	673.75
1082.491633	677.75
1083.054024	673.25
1083.616357	674.75
1084.178632	678.25
1084.74085	678.5
1085.30301	677.5
1085.865113	674.5
1086.427158	674.25
1086.989145	678.0
1087.551074	676.75
1088.112946	671.0
1088.67476	670.25
1089.236517	675.0
1089.798216	674.5
1090.359857	673.5
1090.92144	674.5
1091.482966	673.25
1092.044435	674.5
1092.605845	671.5
1093.167199	675.25
1093.728494	674.25
1094.289732	675.25
1094.850912	676.0
1095.412035	681.5
1095.9731	676.0
1096.534107	672.5
1097.095057	684.0
1097.65595	675.5
1098.216784	672.25
1098.777561	674.25
1099.338281	677.25
1099.898943	674.5
1100.459547	674.75
1101.020094	674.0
1101.580584	673.0
1102.141015	673.75
1102.701389	676.25
1103.261706	677.25
1103.821965	674.25
1104.382167	674.0
1104.942311	673.5
1105.502397	672.0
1106.062426	675.0
1106.622398	673.75
1107.182312	676.5
1107.742168	671.0
1108.301967	676.75
1108.861708	674.5
1109.421392	675.5
1109.981019	674.5
1110.540587	674.0
1111.100099	673.75
1111.659553	675.5
1112.218949	676.75
1112.778288	672.25
1113.33757	677.0
1113.896794	669.75
1114.45596	675.25
1115.015069	674.0
1115.574121	672.5
1116.133115	672.25
1116.692052	673.5
1117.250931	680.5
1117.809753	672.75
1118.368517	673.5
1118.927224	673.75
1119.485873	674.0
1120.044465	669.75
1120.603	676.5
1121.161477	674.75
1121.719897	671.75
1122.278259	673.75
1122.836564	673.75
1123.394812	674.25
1123.953002	673.25
1124.511135	672.75
1125.06921	671.25
1125.627228	673.75
1126.185189	676.0
1126.743092	672.75
1127.300938	674.5
1127.858726	680.0
1128.416457	679.75
1128.974131	676.0
1129.531748	678.25
1130.089307	677.75
1130.646808	675.5
1131.204252	674.75
1131.761639	674.75
1132.318969	674.0
1132.876241	674.0
1133.433456	674.75
1133.990614	673.75
1134.547714	673.25
1135.104757	674.5
1135.661743	673.0
1136.218671	673.5
1136.775542	674.75
1137.332356	674.25
1137.889112	675.5
1138.445811	672.25
1139.002453	673.5
1139.559037	674.25
1140.115565	672.75
1140.672035	677.0
1141.228447	676.5
1141.784803	672.25
1142.341101	671.5
1142.897342	675.5
1143.453525	673.0
1144.009651	677.25
1144.565721	672.75
1145.121732	677.5
1145.677687	675.5
1146.233584	677.5
1146.789424	674.5
1147.345207	675.75
1147.900933	677.25
1148.456601	676.75
1149.012212	677.5
1149.567766	674.75
1150.123263	677.25
1150.678702	682.25
1151.234085	694.75
1151.78941	698.25
1152.344678	682.75
1152.899888	676.5
1153.455042	676.5
1154.010138	676.0
1154.565177	677.5
1155.120159	672.0
1155.675084	675.75
1156.229951	674.75
1156.784762	673.0
1157.339515	676.0
1157.894211	672.0
1158.44885	1072.0
1159.003432	1001.75
1159.557956	674.0
1160.112424	674.0
1160.666834	675.25
1161.221187	673.75
1161.775483	673.5
1162.329722	674.5
1162.883904	674.25
1163.438029	672.5
1163.992096	674.0
1164.546107	674.0
1165.10006	674.0
1165.653956	673.75
1166.207795	673.75
1166.761577	676.75
1167.315302	690.5
1167.86897	674.0
1168.422581	672.25
1168.976134	676.75
1169.529631	674.5
1170.08307	673.75
1170.636453	678.0
1171.189778	673.75
1171.743046	671.25
1172.296257	675.25
1172.849412	674.5
1173.402509	673.25
1173.955549	672.5
1174.508532	672.75
1175.061458	673.25
1175.614327	671.75
1176.167138	674.0
1176.719893	672.25
1177.272591	675.5
1177.825232	675.0
1178.377816	670.0
1178.930342	674.5
1179.482812	675.0
1180.035225	670.5
1180.587581	672.5
1181.139879	672.25
1181.692121	673.25
1182.244306	672.25
1182.796434	670.25
1183.348504	674.75
1183.900518	673.25
1184.452475	670.25
1185.004375	674.5
1185.556218	673.0
1186.108004	669.75
1186.659733	674.0
1187.211405	672.25
1187.76302	673.75
1188.314578	671.75
1188.866079	674.25
1189.417523	672.75
1189.96891	673.5
1190.520241	673.75
1191.071514	671.75
1191.622731	672.5
1192.17389	671.25
1192.724993	674.5
1193.276039	695.0
1193.827027	675.25
1194.377959	674.0
1194.928834	674.5
1195.479653	672.5
1196.030414	672.0
1196.581118	675.0
1197.131766	672.5
1197.682356	675.5
1198.23289	676.5
1198.783367	674.0
1199.333786	673.25
1199.88415	673.75
1200.434456	671.5
1200.984705	672.25
1201.534898	673.5
1202.085033	670.75
1202.635112	672.5
1203.185134	671.0
1203.735099	676.5
1204.285007	674.5
1204.834859	671.25
1205.384653	673.25
1205.934391	673.5
1206.484072	668.75
1207.033696	675.25
1207.583263	675.0
1208.132774	671.25
1208.682228	672.25
1209.231624	679.0
1209.780965	674.5
1210.330248	673.25
1210.879474	673.0
1211.428644	674.0
1211.977757	674.25
1212.526813	673.75
1213.075813	674.25
1213.624755	676.75
1214.173641	673.25
1214.72247	674.0
1215.271242	672.25
1215.819958	675.5
1216.368617	672.5
1216.917219	671.75
1217.465764	671.0
1218.014253	673.5
1218.562685	675.5
1219.11106	673.0
1219.659378	672.25
1220.20764	676.75
1220.755845	674.0
1221.303993	673.5
1221.852085	677.25
1222.400119	675.0
1222.948097	672.75
1223.496019	675.0
1224.043883	673.5
1224.591691	674.0
1225.139443	672.25
1225.687137	673.0
1226.234775	676.75
1226.782357	673.75
1227.329881	670.5
1227.877349	672.5
1228.42476	674.0
1228.972115	671.25
1229.519413	675.0
1230.066654	673.0
1230.613839	675.25
1231.160967	675.25
1231.708038	676.5
1232.255053	672.5
1232.802011	675.25
1233.348912	672.75
1233.895757	671.5
1234.442545	673.25
1234.989277	678.0
1235.535951	673.25
1236.08257	674.5
1236.629131	673.5
1237.175636	672.75
1237.722085	673.75
1238.268477	674.25
1238.814812	674.25
1239.361091	672.0
1239.907313	674.75
1240.453478	674.25
1240.999587	679.0
1241.54564	674.25
1242.091636	671.0
1242.637575	675.75
1243.183457	672.25
1243.729284	673.5
1244.275053	675.5
1244.820766	674.25
1245.366423	676.0
1245.912022	674.75
1246.457566	674.5
1247.003053	675.5
1247.548483	676.0
1248.093857	676.25
1248.639174	679.25
1249.184435	674.25
1249.729639	678.5
1250.274787	678.25
1250.819878	679.0
1251.364912	680.75
1251.909891	676.75
1252.454812	677.25
1252.999677	675.0
1253.544486	673.0
1254.089238	673.75
1254.633934	674.0
1255.178573	676.75
1255.723156	674.75
1256.267682	676.75
1256.812152	676.5
1257.356565	678.5
1257.900922	674.5
1258.445223	675.5
1258.989467	678.75
1259.533654	679.25
1260.077785	694.5
1260.62186	682.75
1261.165878	677.0
1261.70984	677.25
1262.253745	676.0
1262.797594	677.25
1263.341386	677.25
1263.885123	686.75
1264.428802	689.0
1264.972425	702.5
1265.515992	735.0
1266.059503	754.25
1266.602957	724.75
1267.146354	700.0
1267.689696	682.75
1268.23298	681.0
1268.776209	676.0
1269.319381	679.25
1269.862497	678.5
1270.405556	677.0
1270.948559	678.75
1271.491506	677.0
1272.034396	676.0
1272.57723	677.75
1273.120007	676.75
1273.662728	677.5
1274.205393	678.5
1274.748002	677.0
1275.290554	676.75
1275.83305	676.75
1276.375489	675.25
1276.917872	678.0
1277.460199	675.75
1278.00247	675.0
1278.544684	676.75
1279.086842	678.75
1279.628943	680.0
1280.170989	678.5
1280.712978	677.0
1281.25491	685.5
1281.796787	683.0
1282.338607	680.25
1282.880371	686.25
1283.422078	692.75
1283.963729	709.5
1284.505324	737.0
1285.046863	822.0
1285.588345	1157.0
1286.129772	1782.75
1286.671142	1438.0
1287.212455	875.25
1287.753713	737.75
1288.294914	709.75
1288.836059	696.0
1289.377147	686.25
1289.91818	684.25
1290.459156	679.75
1291.000076	681.75
1291.54094	679.5
1292.081747	681.75
1292.622499	679.75
1293.163194	676.75
1293.703833	677.5
1294.244415	676.5
1294.784942	674.75
1295.325412	677.75
1295.865826	677.0
1296.406184	676.5
1296.946486	677.75
1297.486731	672.75
1298.026921	675.25
1298.567054	677.75
1299.107131	675.75
1299.647152	676.75
1300.187116	674.0
1300.727025	677.25
1301.266877	673.25
1301.806673	676.5
1302.346413	677.75
1302.886097	679.75
1303.425725	677.5
1303.965297	674.75
1304.504812	677.0
1305.044272	673.5
1305.583675	676.5
1306.123022	676.0
1306.662313	675.75
1307.201548	674.75
1307.740727	674.0
1308.279849	674.25
1308.818916	680.0
1309.357926	677.0
1309.896881	675.0
1310.435779	675.25
1310.974621	677.25
1311.513407	673.5
1312.052137	675.0
1312.590811	673.5
1313.129429	673.5
1313.667991	677.0
1314.206497	671.0
1314.744946	675.5
1315.28334	676.75
1315.821678	674.5
1316.359959	675.0
1316.898184	676.25
1317.436354	676.0
1317.974467	674.25
1318.512525	673.25
1319.050526	674.5
1319.588471	674.75
1320.12636	675.0
1320.664194	677.5
1321.201971	677.0
1321.739692	677.25
1322.277357	675.5
1322.814967	674.75
1323.35252	677.25
1323.890017	678.5
1324.427458	674.25
1324.964843	672.75
1325.502173	673.25
1326.039446	675.25
1326.576663	672.75
1327.113824	672.75
1327.65093	677.0
1328.187979	676.75
1328.724972	673.25
1329.26191	676.0
1329.798791	674.5
1330.335617	673.0
1330.872386	675.75
1331.4091	673.5
1331.945758	674.75
1332.48236	673.25
1333.018905	674.0
1333.555395	675.25
1334.091829	674.75
1334.628207	676.0
1335.164529	677.0
1335.700796	673.25
1336.237006	672.75
1336.77316	675.5
1337.309259	673.5
1337.845301	673.5
1338.381288	677.5
1338.917219	675.0
1339.453094	676.0
1339.988913	673.25
1340.524676	674.0
1341.060383	672.25
1341.596034	672.0
1342.13163	673.75
1342.66717	672.5
1343.202653	676.0
1343.738081	674.5
1344.273453	678.5
1344.80877	673.75
1345.34403	676.5
1345.879235	675.25
1346.414383	677.75
1346.949476	671.75
1347.484513	675.0
1348.019494	675.5
1348.55442	678.0
1349.089289	673.75
1349.624103	673.5
1350.158861	675.75
1350.693563	674.25
1351.228209	675.25
1351.7628	673.75
1352.297334	674.5
1352.831813	680.25
1353.366236	676.0
1353.900604	675.75
1354.434915	671.5
1354.969171	674.5
1355.503371	672.0
1356.037515	677.0
1356.571604	678.5
1357.105636	672.0
1357.639613	676.25
1358.173535	675.25
1358.7074	673.25
1359.24121	678.75
1359.774964	677.5
1360.308662	677.5
1360.842304	675.0
1361.375891	674.75
1361.909422	673.5
1362.442897	677.75
1362.976317	672.5
1363.50968	677.5
1364.042989	675.5
1364.576241	678.5
1365.109438	675.75
1365.642579	672.75
1366.175664	676.5
1366.708693	677.25
1367.241667	678.5
1367.774585	676.0
1368.307448	679.75
1368.840255	676.0
1369.373006	680.75
1369.905701	675.25
1370.438341	682.0
1370.970925	703.75
1371.503454	700.75
1372.035926	677.5
1372.568344	675.0
1373.100705	675.0
1373.633011	677.0
1374.165261	678.0
1374.697456	675.25
1375.229595	676.25
1375.761678	676.75
1376.293705	675.0
1376.825677	675.25
1377.357594	679.5
1377.889455	674.0
1378.42126	678.25
1378.953009	677.0
1379.484703	680.75
1380.016342	673.25
1380.547924	677.0
1381.079452	680.25
1381.610923	680.75
1382.142339	681.0
1382.673699	681.5
1383.205004	680.25
1383.736253	683.25
1384.267447	684.25
1384.798585	685.75
1385.329668	683.5
1385.860695	692.0
1386.391666	697.25
1386.922582	706.0
1387.453442	720.5
1387.984247	755.5
1388.514996	948.5
1389.04569	1878.0
1389.576328	2677.75
1390.10691	1341.25
1390.637437	811.75
1391.167909	721.75
1391.698325	702.5
1392.228685	695.25
1392.75899	685.5
1393.28924	687.25
1393.819434	687.0
1394.349572	681.75
1394.879655	679.75
1395.409683	681.0
1395.939655	678.75
1396.469571	681.0
1396.999432	678.75
1397.529237	677.25
1398.058987	678.5
1398.588682	679.0
1399.118321	676.5
1399.647905	675.75
1400.177433	675.5
1400.706906	675.75
1401.236323	675.25
1401.765685	677.0
1402.294991	677.25
1402.824242	673.75
1403.353437	676.75
1403.882577	677.5
1404.411662	678.25
1404.940691	679.75
1405.469665	676.75
1405.998583	676.25
1406.527446	681.5
1407.056253	677.25
1407.585005	680.25
1408.113702	678.75
1408.642343	683.5
1409.170929	689.25
1409.69946	709.25
1410.227935	762.0
1410.756354	835.0
1411.284719	779.5
1411.813028	714.25
1412.341281	690.5
1412.869479	684.75
1413.397622	677.0
1413.92571	677.0
1414.453742	680.25
1414.981718	674.5
1415.50964	687.75
1416.037506	675.0
1416.565316	676.5
1417.093072	676.25
1417.620772	677.0
1418.148416	673.75
1418.676005	676.75
1419.203539	674.5
1419.731018	674.75
1420.258441	673.0
1420.785809	675.5
1421.313122	672.25
1421.840379	677.75
1422.367582	675.5
1422.894728	674.75
1423.42182	675.0
1423.948856	671.25
1424.475837	674.75
1425.002762	675.0
1425.529633	678.0
1426.056448	676.75
1426.583207	683.25
1427.109912	677.25
1427.636561	678.75
1428.163155	675.5
1428.689694	675.5
1429.216177	676.0
1429.742605	677.25
1430.268978	675.5
1430.795296	671.5
1431.321558	673.5
1431.847765	673.75
1432.373917	673.5
1432.900014	673.0
1433.426056	673.0
1433.952042	673.0
1434.477973	675.0
1435.003849	675.25
1435.529669	674.25
1436.055435	670.0
1436.581145	670.75
1437.1068	672.75
1437.632399	672.5
1438.157944	672.75
1438.683433	671.0
1439.208868	672.5
1439.734247	674.25
1440.25957	674.25
1440.784839	673.0
1441.310053	673.5
1441.835211	673.75
1442.360314	668.75
1442.885362	669.25
1443.410355	671.25
1443.935292	668.0
1444.460175	672.5
1444.985002	672.0
1445.509774	674.5
1446.034491	670.25
1446.559153	672.5
1447.08376	674.0
1447.608312	672.25
1448.132808	672.0
1448.65725	671.0
1449.181636	672.25
1449.705967	671.0
1450.230243	671.75
1450.754464	670.25
1451.27863	673.5
1451.802741	675.25
1452.326797	669.75
1452.850797	671.5
1453.374743	673.0
1453.898633	671.5
1454.422468	671.25
1454.946249	671.0
1455.469974	673.0
1455.993644	672.5
1456.517259	671.25
1457.040819	669.75
1457.564324	673.25
1458.087773	671.0
1458.611168	669.25
1459.134508	668.25
1459.657793	669.75
1460.181022	668.25
1460.704197	668.5
1461.227316	673.0
1461.750381	670.5
1462.27339	671.75
1462.796345	674.0
1463.319244	695.0
1463.842089	694.5
1464.364878	670.25
1464.887613	668.75
1465.410292	670.5
1465.932916	674.75
1466.455486	668.75
1466.978	670.25
1467.50046	670.0
1468.022864	669.25
1468.545214	668.0
1469.067508	668.5
1469.589748	669.75
1470.111932	671.5
1470.634062	669.5
1471.156136	671.25
1471.678156	669.25
1472.20012	669.75
1472.72203	670.5
1473.243885	669.25
1473.765685	669.25
1474.28743	671.0
1474.80912	672.75
1475.330755	670.75
1475.852335	667.75
1476.37386	669.25
1476.89533	669.5
1477.416745	667.5
1477.938106	672.0
1478.459411	672.25
1478.980662	671.5
1479.501857	668.0
1480.022998	668.25
1480.544084	668.0
1481.065115	671.75
1481.586091	671.5
1482.107012	670.75
1482.627878	667.25
1483.14869	673.75
1483.669446	670.0
1484.190148	670.75
1484.710794	668.25
1485.231386	669.75
1485.751923	666.75
1486.272406	671.0
1486.792833	669.5
1487.313205	669.0
1487.833523	668.25
1488.353786	668.5
1488.873994	669.75
1489.394147	669.0
1489.914245	668.75
1490.434288	668.5
1490.954277	668.0
1491.474211	666.25
1491.99409	667.5
1492.513914	668.0
1493.033683	669.5
1493.553398	681.25
1494.592662	668.5
1495.112212	666.25
1495.631708	666.0
1496.151148	668.5
1496.670534	669.0
1497.189865	671.0
1497.709141	667.0
1498.228362	669.25
1498.747529	669.25
1499.266641	669.75
1499.785698	675.75
1500.3047	669.5
1500.823648	669.25
1501.34254	671.0
1501.861379	670.75
1502.380162	670.5
1502.89889	666.5
1503.417564	669.0
1503.936183	669.0
1504.454748	669.75
1504.973257	672.75
1505.491712	672.5
1506.010112	669.0
1506.528458	670.25
1507.046748	669.75
1507.564984	671.75
1508.083166	668.25
1508.601292	669.5
1509.119364	672.0
1509.637381	668.25
1510.155344	671.5
1510.673252	678.25
1511.191105	669.75
1511.708903	668.5
1512.226647	668.25
1512.744336	669.75
1513.261971	669.25
1513.77955	673.75
1514.297076	666.75
1514.814546	672.75
1515.331962	667.25
1515.849323	667.0
1516.366629	669.25
1516.883881	671.5
1517.401078	671.0
1517.918221	672.75
1518.435309	671.25
1518.952342	671.25
1519.469321	667.0
1519.986245	667.5
1520.503114	670.5
1521.019929	667.0
1521.536689	669.5
1522.053395	670.0
1522.570046	671.5
1523.086642	670.25
1523.603184	669.25
1524.119671	670.75
1524.636103	669.5
1525.152481	669.5
1525.668805	668.25
1526.185073	680.5
1526.701288	690.0
1527.217447	672.75
1527.733552	671.25
1528.249603	669.25
1528.765599	667.25
1529.28154	665.0
1529.797427	668.25
1530.313259	670.25
1530.829037	667.25
1531.34476	671.25
1531.860429	669.0
1532.376043	669.5
1532.891602	670.0
1533.407107	670.75
1533.922558	667.0
1534.437954	668.0
1534.953295	670.0
1535.468582	669.5
1535.983815	668.5
1536.498993	668.25
1537.014116	667.75
1537.529185	666.75
1538.044199	666.0
1538.559159	666.25
1539.074064	670.0
1539.588915	670.0
1540.103712	668.75
1540.618454	669.25
1541.133141	665.75
1541.647774	668.0
1542.162353	671.75
1542.676877	670.5
1543.191346	668.5
1543.705761	672.75
1544.220122	671.0
1544.734428	670.0
1545.24868	671.75
1545.762877	667.5
1546.27702	671.25
1546.791109	670.25
1547.305143	669.0
1547.819122	667.5
1548.333047	670.25
1548.846918	669.75
1549.360734	669.75
1549.874496	668.75
1550.388204	669.25
1550.901857	666.0
1551.415455	667.0
1551.929	672.25
1552.442489	670.0
1552.955925	668.75
1553.469306	669.75
1553.982632	668.75
1554.495905	671.0
1555.009123	670.75
1555.522286	671.0
1556.035395	674.0
1556.54845	666.75
1557.06145	670.25
1557.574396	668.75
1558.087288	668.25
1558.600125	671.75
1559.112908	671.25
1559.625637	669.75
1560.138311	672.75
1560.650931	669.75
1561.163497	670.5
1561.676008	670.25
1562.188465	675.25
1562.700867	671.5
1563.213216	671.75
1563.725509	671.75
1564.237749	671.0
1564.749934	672.5
1565.262065	674.5
1565.774142	672.75
1566.286164	673.0
1566.798132	673.5
1567.310046	674.75
1567.821906	672.25
1568.333711	676.5
1568.845462	671.0
1569.357158	673.25
1569.868801	668.0
1570.380389	670.5
1570.891922	669.75
1571.403402	671.25
1571.914827	668.5
1572.426198	669.25
1572.937515	669.0
1573.448777	670.25
1573.959985	670.0
1574.471139	669.5
1574.982239	672.75
1575.493285	670.25
1576.004276	672.75
1576.515213	668.25
1577.026096	666.0
1577.536924	669.0
1578.047698	670.25
1578.558419	670.0
1579.069084	669.25
1579.579696	671.0
1580.090254	669.5
1580.600757	669.75
1581.111206	668.0
1581.621601	670.25
1582.131941	669.75
1582.642228	671.25
1583.15246	671.5
1583.662638	668.0
1584.172762	667.5
1584.682832	668.5
1585.192847	671.75
1585.702809	668.75
1586.212716	671.5
1586.722569	668.5
1587.232368	667.25
1587.742113	668.0
1588.251803	669.25
1588.76144	671.5
1589.271022	668.0
1589.78055	666.25
1590.290024	668.25
1590.799444	670.5
1591.30881	666.5
1591.818121	669.5
1592.327379	669.75
