1042.414189	714.4000244
1042.980685	713.7999878
1043.547124	716.2000122
1044.113505	715.0
1044.679828	706.0
1045.246093	706.7999878
1045.8123	709.5999756
1046.378449	707.0
1046.94454	707.2000122
1047.510573	711.0
1048.076548	707.7999878
1048.642465	702.2000122
1049.208325	707.5999756
1049.774126	702.5999756
1050.339869	704.4000244
1050.905555	704.2000122
1051.471183	703.4000244
1052.036752	699.2000122
1052.602264	700.5999756
1053.167718	697.0
1053.733114	698.2000122
1054.298452	696.7999878
1054.863733	700.0
1055.428955	695.2000122
1055.994119	696.0
1056.559226	695.7999878
1057.124275	694.2000122
1057.689266	692.0
1058.254199	693.4000244
1058.819074	691.7999878
1059.383891	697.2000122
1059.94865	695.0
1060.513352	691.0
1061.077996	694.0
1061.642582	693.7999878
1062.20711	693.7999878
1062.77158	694.4000244
1063.335992	691.0
1063.900347	693.0
1064.464643	692.2000122
1065.028882	695.7999878
1065.593063	692.0
1066.157187	696.2000122
1066.721252	693.0
1067.28526	691.5999756
1067.84921	692.2000122
1068.413102	688.0
1068.976936	691.0
1069.540713	688.2000122
1070.104431	699.5999756
1070.668092	692.2000122
1071.231696	693.5999756
1071.795241	691.5999756
1072.358729	692.7999878
1072.922159	688.7999878
1073.485531	692.0
1074.048845	695.4000244
1074.612102	691.0
1075.175301	691.2000122
1075.738442	694.5999756
1076.301525	691.0
1076.864551	691.0
1077.427519	690.0
1077.990429	689.4000244
1078.553281	692.2000122
1079.116076	692.0
1079.678813	691.0
1080.241492	695.0
1080.804114	696.4000244
1081.366678	691.4000244
1081.929184	692.5999756
1082.491633	691.7999878
1083.054024	689.2000122
1083.616357	693.0
1084.178632	694.4000244
1084.74085	689.5999756
1085.30301	689.0
1085.865113	688.7999878
1086.427158	693.0
1086.989145	690.4000244
1087.551074	693.0
1088.112946	693.5999756
1088.67476	692.4000244
1089.236517	692.7999878
1089.798216	691.4000244
1090.359857	690.2000122
1090.92144	689.0
1091.482966	691.4000244
1092.044435	690.2000122
1092.605845	688.2000122
1093.167199	690.0
1093.728494	690.4000244
1094.289732	694.7999878
1094.850912	689.4000244
1095.412035	695.7999878
1095.9731	691.4000244
1096.534107	688.0
1097.095057	694.5999756
1097.65595	689.5999756
1098.216784	693.4000244
1098.777561	691.4000244
1099.338281	688.2000122
1099.898943	691.0
1100.459547	694.0
1101.020094	689.4000244
1101.580584	688.7999878
1102.141015	693.7999878
1102.701389	692.0
1103.261706	690.0
1103.821965	694.2000122
1104.382167	691.0
1104.942311	690.0
1105.502397	692.2000122
1106.062426	689.2000122
1106.622398	694.7999878
1107.182312	692.2000122
1107.742168	690.5999756
1108.301967	694.0
1108.861708	691.5999756
1109.421392	692.2000122
1109.981019	692.4000244
1110.540587	695.5999756
1111.100099	691.5999756
1111.659553	693.5999756
1112.218949	692.2000122
1112.778288	692.0
1113.33757	691.5999756
1113.896794	693.0
1114.45596	697.2000122
1115.015069	689.2000122
1115.574121	687.0
1116.133115	693.2000122
1116.692052	690.0
1117.250931	690.5999756
1117.809753	692.0
1118.368517	693.4000244
1118.927224	692.4000244
1119.485873	691.4000244
1120.044465	696.4000244
1120.603	694.5999756
1121.161477	690.4000244
1121.719897	695.4000244
1122.278259	692.5999756
1122.836564	693.4000244
1123.394812	690.5999756
1123.953002	694.5999756
1124.511135	692.7999878
1125.06921	691.4000244
1125.627228	694.4000244
1126.185189	690.5999756
1126.743092	689.7999878
1127.300938	688.2000122
1127.858726	690.7999878
1128.416457	688.7999878
1128.974131	690.0
1129.531748	689.5999756
1130.089307	691.2000122
1130.646808	690.7999878
1131.204252	689.7999878
1131.761639	687.2000122
1132.318969	693.7999878
1132.876241	694.2000122
1133.433456	690.0
1133.990614	692.7999878
1134.547714	692.5999756
1135.104757	693.2000122
1135.661743	689.2000122
1136.218671	693.2000122
1136.775542	696.5999756
1137.332356	692.5999756
1137.889112	692.2000122
1138.445811	689.7999878
1139.002453	693.0
1139.559037	692.2000122
1140.115565	688.5999756
1140.672035	692.2000122
1141.228447	693.5999756
1141.784803	696.7999878
1142.341101	692.5999756
1142.897342	692.0
1143.453525	692.5999756
1144.009651	690.4000244
1144.565721	692.7999878
1145.121732	690.7999878
1145.677687	692.2000122
1146.233584	694.0
1146.789424	694.4000244
1147.345207	691.0
1147.900933	690.4000244
1148.456601	691.5999756
1149.012212	691.2000122
1149.567766	690.0
1150.123263	692.7999878
1150.678702	692.5999756
1151.234085	696.5999756
1151.78941	696.5999756
1152.344678	689.5999756
1152.899888	693.0
1153.455042	691.2000122
1154.010138	693.0
1154.565177	693.0
1155.120159	693.0
1155.675084	695.4000244
1156.229951	690.0
1156.784762	691.5999756
1157.339515	691.2000122
1157.894211	689.7999878
1158.44885	692.2000122
1159.003432	694.0
1159.557956	689.0
1160.112424	690.4000244
1160.666834	691.5999756
1161.221187	689.4000244
1161.775483	693.2000122
1162.329722	693.5999756
1162.883904	694.5999756
1163.438029	694.7999878
1163.992096	692.2000122
1164.546107	692.2000122
1165.10006	697.0
1165.653956	700.2000122
1166.207795	696.4000244
1166.761577	695.4000244
1167.315302	691.0
1167.86897	697.7999878
1168.422581	693.2000122
1168.976134	694.0
1169.529631	694.4000244
1170.08307	695.5999756
1170.636453	694.7999878
1171.189778	689.5999756
1171.743046	692.0
1172.296257	695.2000122
1172.849412	690.2000122
1173.402509	691.0
1173.955549	692.7999878
1174.508532	693.0
1175.061458	689.0
1175.614327	689.7999878
1176.167138	687.4000244
1176.719893	693.7999878
1177.272591	688.7999878
1177.825232	689.0
1178.377816	689.4000244
1178.930342	689.2000122
1179.482812	691.4000244
1180.035225	691.5999756
1180.587581	688.4000244
1181.139879	690.0
1181.692121	688.5999756
1182.244306	689.2000122
1182.796434	687.4000244
1183.348504	688.2000122
1183.900518	691.7999878
1184.452475	686.2000122
1185.004375	693.2000122
1185.556218	692.2000122
1186.108004	694.0
1186.659733	689.0
1187.211405	686.2000122
1187.76302	689.0
1188.314578	688.7999878
1188.866079	690.5999756
1189.417523	690.7999878
1189.96891	690.2000122
1190.520241	688.7999878
1191.071514	689.7999878
1191.622731	690.7999878
1192.17389	689.4000244
1192.724993	688.4000244
1193.276039	704.2000122
1193.827027	690.7999878
1194.377959	689.4000244
1194.928834	692.7999878
1195.479653	690.2000122
1196.030414	688.4000244
1196.581118	693.0
1197.131766	690.4000244
1197.682356	689.4000244
1198.23289	690.0
1198.783367	690.0
1199.333786	685.2000122
1199.88415	690.7999878
1200.434456	688.0
1200.984705	692.2000122
1201.534898	690.0
1202.085033	694.0
1202.635112	686.0
1203.185134	689.2000122
1203.735099	693.4000244
1204.285007	691.2000122
1204.834859	687.5999756
1205.384653	688.7999878
1205.934391	690.4000244
1206.484072	689.5999756
1207.033696	691.0
1207.583263	692.7999878
1208.132774	690.5999756
1208.682228	689.4000244
1209.231624	695.0
1209.780965	692.5999756
1210.330248	688.2000122
1210.879474	688.7999878
1211.428644	691.2000122
1211.977757	693.7999878
1212.526813	688.2000122
1213.075813	692.4000244
1213.624755	689.4000244
1214.173641	690.2000122
1214.72247	690.7999878
1215.271242	691.0
1215.819958	692.0
1216.368617	693.5999756
1216.917219	693.2000122
1217.465764	688.5999756
1218.014253	691.5999756
1218.562685	693.2000122
1219.11106	687.7999878
1219.659378	691.7999878
1220.20764	693.4000244
1220.755845	690.5999756
1221.303993	691.5999756
1221.852085	693.5999756
1222.400119	692.7999878
1222.948097	691.2000122
1223.496019	691.7999878
1224.043883	692.0
1224.591691	691.4000244
1225.139443	691.2000122
1225.687137	692.4000244
1226.234775	692.7999878
1226.782357	693.7999878
1227.329881	691.4000244
1227.877349	690.4000244
1228.42476	689.2000122
1228.972115	690.2000122
1229.519413	692.0
1230.066654	691.4000244
1230.613839	689.7999878
1231.160967	690.5999756
1231.708038	696.0
1232.255053	689.2000122
1232.802011	694.0
1233.348912	689.5999756
1233.895757	691.7999878
1234.442545	694.2000122
1234.989277	691.7999878
1235.535951	690.4000244
1236.08257	689.7999878
1236.629131	694.4000244
1237.175636	693.4000244
1237.722085	694.2000122
1238.268477	691.5999756
1238.814812	694.4000244
1239.361091	692.4000244
1239.907313	691.7999878
1240.453478	690.5999756
1240.999587	693.7999878
1241.54564	691.0
1242.091636	697.4000244
1242.637575	694.5999756
1243.183457	694.0
1243.729284	694.5999756
1244.275053	691.7999878
1244.820766	693.0
1245.366423	694.2000122
1245.912022	694.0
1246.457566	695.0
1247.003053	692.7999878
1247.548483	693.0
1248.093857	694.7999878
1248.639174	690.5999756
1249.184435	695.0
1249.729639	692.2000122
1250.274787	699.4000244
1250.819878	697.2000122
1251.364912	694.0
1251.909891	691.0
1252.454812	697.4000244
1252.999677	695.2000122
1253.544486	689.4000244
1254.089238	692.5999756
1254.633934	692.5999756
1255.178573	697.5999756
1255.723156	695.2000122
1256.267682	694.4000244
1256.812152	693.2000122
1257.356565	695.0
1257.900922	697.2000122
1258.445223	698.2000122
1258.989467	696.5999756
1259.533654	697.2000122
1260.077785	708.7999878
1260.62186	701.2000122
1261.165878	698.4000244
1261.70984	695.7999878
1262.253745	696.4000244
1262.797594	698.0
1263.341386	699.0
1263.885123	701.4000244
1264.428802	703.2000122
1264.972425	713.2000122
1265.515992	729.4000244
1266.059503	738.7999878
1266.602957	722.4000244
1267.146354	709.2000122
1267.689696	701.4000244
1268.23298	703.2000122
1268.776209	698.4000244
1269.319381	699.7999878
1269.862497	700.5999756
1270.405556	694.4000244
1270.948559	694.4000244
1271.491506	694.7999878
1272.034396	695.5999756
1272.57723	699.5999756
1273.120007	700.4000244
1273.662728	697.0
1274.205393	702.2000122
1274.748002	695.0
1275.290554	694.7999878
1275.83305	699.5999756
1276.375489	697.2000122
1276.917872	696.0
1277.460199	694.7999878
1278.00247	700.7999878
1278.544684	696.0
1279.086842	700.0
1279.628943	699.7999878
1280.170989	701.5999756
1280.712978	697.5999756
1281.25491	702.0
1281.796787	701.5999756
1282.338607	706.4000244
1282.880371	703.7999878
1283.422078	707.4000244
1283.963729	714.2000122
1284.505324	728.4000244
1285.046863	775.2000122
1285.588345	965.4000244
1286.129772	1340.800049
1286.671142	1154.0
1287.212455	828.0
1287.753713	737.0
1288.294914	719.5999756
1288.836059	708.4000244
1289.377147	704.4000244
1289.91818	705.4000244
1290.459156	701.7999878
1291.000076	702.7999878
1291.54094	707.5999756
1292.081747	701.7999878
1292.622499	700.7999878
1293.163194	699.2000122
1293.703833	697.4000244
1294.244415	699.0
1294.784942	702.7999878
1295.325412	694.7999878
1295.865826	699.2000122
1296.406184	699.0
1296.946486	697.5999756
1297.486731	699.0
1298.026921	697.4000244
1298.567054	700.0
1299.107131	697.4000244
1299.647152	706.2000122
1301.266877	697.5999756
1301.806673	696.7999878
1302.346413	700.0
1302.886097	699.4000244
1303.425725	699.4000244
1303.965297	699.2000122
1304.504812	696.5999756
1305.044272	698.2000122
1305.583675	699.7999878
1306.123022	699.2000122
1306.662313	696.2000122
1307.201548	696.7999878
1307.740727	699.5999756
1308.279849	699.4000244
1308.818916	695.0
1309.357926	696.0
1309.896881	695.0
1310.435779	694.4000244
1310.974621	697.0
1311.513407	696.7999878
1312.052137	695.2000122
1312.590811	695.7999878
1313.129429	693.7999878
1313.667991	695.0
1314.206497	694.0
1314.744946	696.4000244
1315.28334	697.0
1315.821678	696.5999756
1316.359959	693.7999878
1316.898184	690.7999878
1317.436354	694.5999756
1317.974467	692.7999878
1318.512525	693.5999756
1319.050526	691.0
1319.588471	693.4000244
1320.12636	691.4000244
1320.664194	694.4000244
1321.201971	695.2000122
1321.739692	690.0
1322.277357	692.2000122
1322.814967	695.2000122
1323.35252	690.7999878
1323.890017	698.4000244
1324.427458	690.7999878
1324.964843	693.5999756
1325.502173	692.0
1326.039446	692.0
1326.576663	694.5999756
1327.113824	693.5999756
1327.65093	690.0
1328.187979	688.0
1328.724972	693.2000122
1329.26191	692.0
1329.798791	692.7999878
1330.335617	690.0
1330.872386	692.7999878
1331.4091	692.2000122
1331.945758	691.0
1332.48236	691.2000122
1333.018905	687.5999756
1333.555395	690.4000244
1334.091829	691.4000244
1334.628207	693.0
1335.164529	694.4000244
1335.700796	697.0
1336.237006	694.0
1336.77316	690.7999878
1337.309259	689.4000244
1337.845301	689.2000122
1338.381288	691.5999756
1338.917219	693.4000244
1339.453094	690.4000244
1339.988913	689.2000122
1340.524676	692.7999878
1341.060383	695.2000122
1341.596034	690.4000244
1342.13163	692.4000244
1342.66717	693.5999756
1343.202653	692.0
1343.738081	688.0
1344.273453	693.0
1344.80877	694.5999756
1345.34403	692.0
1345.879235	692.4000244
1346.414383	693.5999756
1346.949476	690.5999756
1347.484513	690.0
1348.019494	688.5999756
1348.55442	689.4000244
1349.089289	690.7999878
1349.624103	691.4000244
1350.158861	692.2000122
1350.693563	694.2000122
1351.228209	692.2000122
1351.7628	689.7999878
1352.297334	691.7999878
1352.831813	693.5999756
1353.366236	692.7999878
1353.900604	690.2000122
1354.434915	698.5999756
1354.969171	694.4000244
1355.503371	693.0
1356.037515	691.0
1356.571604	689.5999756
1357.105636	689.2000122
1357.639613	692.2000122
1358.173535	692.2000122
1358.7074	690.5999756
1359.24121	691.5999756
1359.774964	690.7999878
1360.308662	692.4000244
1360.842304	687.4000244
1361.375891	691.0
1361.909422	689.7999878
1362.442897	686.4000244
1362.976317	692.4000244
1363.50968	695.4000244
1364.042989	690.7999878
1364.576241	695.2000122
1365.109438	691.5999756
1365.642579	695.7999878
1366.175664	692.7999878
1366.708693	692.2000122
1367.241667	698.0
1367.774585	691.7999878
1368.307448	691.5999756
1368.840255	691.4000244
1369.373006	691.7999878
1369.905701	694.0
1370.438341	693.4000244
1370.970925	710.5999756
1371.503454	709.2000122
1372.035926	696.5999756
1372.568344	691.7999878
1373.100705	696.7999878
1373.633011	694.0
1374.165261	693.7999878
1374.697456	692.0
1375.229595	692.0
1375.761678	694.0
1376.293705	690.5999756
1376.825677	694.2000122
1377.357594	693.2000122
1377.889455	695.2000122
1378.42126	694.0
1378.953009	694.4000244
1379.484703	692.5999756
1380.016342	693.2000122
1380.547924	696.7999878
1381.079452	690.0
1381.610923	692.0
1382.142339	696.5999756
1382.673699	694.5999756
1383.205004	694.0
1383.736253	695.7999878
1384.267447	698.2000122
1384.798585	696.7999878
1385.329668	700.5999756
1385.860695	703.2000122
1386.391666	707.0
1386.922582	706.0
1387.453442	714.0
1387.984247	742.5999756
1388.514996	841.0
1389.04569	1362.400024
1389.576328	1863.800049
1390.10691	1081.199951
1390.637437	770.2000122
1391.167909	722.5999756
1391.698325	710.7999878
1392.228685	702.7999878
1392.75899	701.2000122
1393.28924	701.0
1393.819434	695.4000244
1394.349572	695.4000244
1394.879655	699.5999756
1395.409683	696.2000122
1395.939655	694.5999756
1396.469571	694.7999878
1396.999432	692.2000122
1397.529237	692.5999756
1398.058987	692.5999756
1398.588682	694.7999878
1399.118321	693.4000244
1399.647905	694.5999756
1400.177433	694.5999756
1400.706906	694.5999756
1401.236323	698.0
1401.765685	695.2000122
1402.294991	694.4000244
1402.824242	690.4000244
1403.353437	690.5999756
1403.882577	692.4000244
1404.411662	692.4000244
1404.940691	694.5999756
1405.469665	694.0
1405.998583	695.5999756
1406.527446	694.2000122
1407.056253	695.5999756
1407.585005	692.7999878
1408.113702	695.4000244
1408.642343	698.5999756
1409.170929	698.2000122
1409.69946	712.7999878
1410.227935	739.7999878
1410.756354	777.5999756
1411.284719	754.0
1411.813028	713.2000122
1412.341281	699.7999878
1412.869479	699.2000122
1413.397622	695.4000244
1413.92571	694.7999878
1414.453742	693.7999878
1414.981718	694.2000122
1415.50964	702.2000122
1416.037506	693.0
1416.565316	696.7999878
1417.093072	693.5999756
1417.620772	689.5999756
1418.148416	690.0
1418.676005	691.0
1419.203539	693.2000122
1419.731018	688.7999878
1420.258441	694.5999756
1420.785809	693.5999756
1421.313122	691.7999878
1421.840379	693.2000122
1422.367582	690.5999756
1422.894728	692.2000122
1423.42182	693.7999878
1423.948856	692.2000122
1424.475837	693.0
1425.002762	694.0
1425.529633	694.7999878
1426.056448	695.5999756
1426.583207	693.4000244
1427.109912	695.7999878
1427.636561	693.7999878
1428.163155	691.7999878
1428.689694	694.0
1429.216177	690.7999878
1429.742605	693.2000122
1430.268978	691.2000122
1430.795296	694.0
1431.321558	690.5999756
1431.847765	693.5999756
1432.373917	690.5999756
1432.900014	692.7999878
1433.426056	689.4000244
1433.952042	689.5999756
1434.477973	694.4000244
1435.003849	692.0
1435.529669	693.7999878
1436.055435	692.0
1436.581145	691.2000122
1437.1068	694.5999756
1437.632399	695.7999878
1438.157944	689.0
1438.683433	691.0
1439.208868	689.2000122
1439.734247	693.0
1440.25957	690.7999878
1440.784839	692.7999878
1441.310053	691.7999878
1441.835211	693.2000122
1442.360314	694.0
1442.885362	690.7999878
1443.410355	691.0
1443.935292	694.5999756
1444.460175	688.7999878
1444.985002	689.7999878
1445.509774	693.5999756
1446.034491	691.2000122
1446.559153	692.7999878
1447.08376	695.5999756
1447.608312	689.2000122
1448.132808	691.5999756
1448.65725	690.2000122
1449.181636	694.2000122
1449.705967	687.0
1450.230243	691.2000122
1450.754464	694.2000122
1451.27863	690.0
1451.802741	691.7999878
1452.326797	690.7999878
1452.850797	688.0
1453.374743	691.4000244
1453.898633	689.0
1454.422468	689.4000244
1454.946249	694.4000244
1455.469974	687.7999878
1455.993644	689.7999878
1456.517259	689.2000122
1457.040819	692.0
1457.564324	687.0
1458.087773	690.2000122
1458.611168	688.0
1459.134508	692.0
1459.657793	688.2000122
1460.181022	690.5999756
1460.704197	690.4000244
1461.227316	690.4000244
1461.750381	693.2000122
1462.27339	691.0
1462.796345	695.2000122
1463.319244	702.4000244
1463.842089	700.4000244
1464.364878	691.5999756
1464.887613	687.0
1465.410292	687.2000122
1465.932916	690.7999878
1466.455486	692.5999756
1466.978	693.2000122
1467.50046	690.2000122
1468.022864	689.0
1468.545214	690.0
1469.067508	689.7999878
1469.589748	688.5999756
1470.111932	687.7999878
1470.634062	688.2000122
1471.156136	690.7999878
1471.678156	689.2000122
1472.20012	687.2000122
1472.72203	691.2000122
1473.243885	687.4000244
1473.765685	693.7999878
1474.28743	689.4000244
1474.80912	688.7999878
1475.330755	686.0
1475.852335	689.2000122
1476.37386	686.7999878
1476.89533	688.0
1477.416745	688.0
1477.938106	687.4000244
1478.459411	686.7999878
1478.980662	686.4000244
1479.501857	690.5999756
1480.022998	688.0
1480.544084	689.0
1481.065115	691.4000244
1481.586091	688.7999878
1482.107012	689.4000244
1482.627878	684.7999878
1483.14869	688.5999756
1483.669446	688.0
1484.190148	688.0
1484.710794	690.5999756
1485.231386	690.2000122
1485.751923	687.4000244
1486.272406	691.2000122
1486.792833	686.5999756
1487.313205	691.2000122
1487.833523	690.5999756
1488.353786	691.7999878
1488.873994	687.7999878
1489.394147	690.4000244
1489.914245	688.4000244
1490.434288	687.5999756
1490.954277	688.2000122
1491.474211	688.0
1491.99409	688.0
1492.513914	689.5999756
1493.033683	690.0
1493.553398	691.4000244
1494.073057	689.4000244
1494.592662	689.2000122
1495.112212	688.7999878
1495.631708	687.5999756
1496.151148	687.2000122
1496.670534	687.7999878
1497.189865	690.0
1497.709141	687.4000244
1498.228362	689.7999878
1498.747529	688.2000122
1499.266641	687.2000122
1499.785698	694.7999878
1500.3047	684.7999878
1500.823648	690.4000244
1501.34254	688.0
1501.861379	685.5999756
1502.380162	687.5999756
1502.89889	684.7999878
1503.417564	684.4000244
1503.936183	686.5999756
1504.454748	688.5999756
1504.973257	689.4000244
1505.491712	689.2000122
1506.010112	687.4000244
1506.528458	686.5999756
1507.046748	688.4000244
1507.564984	686.2000122
1508.083166	686.5999756
1508.601292	685.5999756
1509.119364	684.2000122
1509.637381	688.2000122
1510.155344	686.2000122
1510.673252	695.7999878
1511.191105	690.2000122
1511.708903	688.7999878
1512.226647	688.2000122
1512.744336	686.0
1513.261971	690.2000122
1513.77955	685.0
1514.297076	686.7999878
1514.814546	683.0
1515.331962	685.4000244
1515.849323	686.0
1516.366629	685.0
1516.883881	686.2000122
1517.401078	686.4000244
1517.918221	685.7999878
1518.435309	687.4000244
1518.952342	686.2000122
1519.469321	688.5999756
1519.986245	685.4000244
1520.503114	685.0
1521.019929	687.5999756
1521.536689	689.2000122
1522.053395	686.4000244
1522.570046	688.2000122
1523.086642	688.5999756
1523.603184	684.2000122
1524.119671	689.4000244
1524.636103	690.4000244
1525.152481	685.2000122
1525.668805	686.5999756
1526.185073	695.0
1526.701288	698.7999878
1527.217447	695.0
1527.733552	691.2000122
1528.249603	687.2000122
1528.765599	686.7999878
1529.28154	687.2000122
1529.797427	685.2000122
1530.313259	683.5999756
1530.829037	686.4000244
1531.34476	687.5999756
1531.860429	687.5999756
1532.376043	690.7999878
1532.891602	690.7999878
1533.407107	685.5999756
1533.922558	688.4000244
1534.437954	686.4000244
1534.953295	687.2000122
1535.468582	687.7999878
1535.983815	685.0
1536.498993	684.5999756
1537.014116	688.0
1537.529185	688.7999878
1538.044199	689.4000244
1538.559159	688.5999756
1539.074064	690.0
1539.588915	690.0
1540.103712	688.7999878
1540.618454	691.4000244
1541.133141	685.0
1541.647774	688.2000122
1542.162353	685.4000244
1542.676877	688.7999878
1543.191346	691.0
1543.705761	688.4000244
1544.220122	684.7999878
1544.734428	688.7999878
1545.24868	688.4000244
1545.762877	684.5999756
1546.27702	685.2000122
1546.791109	689.4000244
1547.305143	690.2000122
1547.819122	689.7999878
1548.333047	687.0
1548.846918	685.0
1549.360734	686.2000122
1549.874496	687.0
1550.388204	688.7999878
1550.901857	688.4000244
1551.415455	690.2000122
1551.929	686.4000244
1552.442489	686.7999878
1552.955925	685.0
1553.469306	688.5999756
1553.982632	687.2000122
1554.495905	689.4000244
1555.009123	689.7999878
1555.522286	685.0
1556.035395	689.5999756
1556.54845	691.0
1557.06145	687.2000122
1557.574396	690.2000122
1558.087288	686.0
1558.600125	688.5999756
1559.112908	686.2000122
1559.625637	686.7999878
1560.138311	686.2000122
1560.650931	687.5999756
1561.163497	686.4000244
1561.676008	687.4000244
1562.188465	689.5999756
1562.700867	691.2000122
1563.213216	689.2000122
1563.725509	693.2000122
1564.237749	690.0
1564.749934	685.0
1565.262065	686.4000244
1565.774142	686.4000244
1566.286164	689.4000244
1566.798132	690.0
1567.310046	691.4000244
1567.821906	688.0
1568.333711	689.4000244
1568.845462	687.4000244
1569.357158	687.0
1569.868801	691.7999878
1570.380389	687.7999878
1570.891922	684.4000244
1571.403402	689.7999878
1571.914827	693.5999756
1572.426198	692.5999756
1572.937515	685.7999878
1573.448777	689.0
1573.959985	687.5999756
1574.471139	691.0
1574.982239	692.4000244
1575.493285	690.0
1576.004276	689.7999878
1576.515213	690.7999878
1577.026096	693.2000122
1577.536924	692.2000122
1578.047698	690.2000122
1578.558419	692.4000244
1579.069084	690.4000244
1579.579696	692.2000122
1580.090254	696.4000244
1580.600757	693.0
1581.111206	692.2000122
1581.621601	695.4000244
1582.131941	693.2000122
1582.642228	693.7999878
1583.15246	695.5999756
1583.662638	693.0
1584.172762	694.4000244
1584.682832	688.0
1585.192847	689.5999756
1585.702809	689.5999756
1586.212716	689.5999756
1586.722569	691.5999756
1587.232368	686.7999878
1587.742113	685.0
1588.251803	688.5999756
1588.76144	692.0
1589.271022	689.4000244
1589.78055	691.2000122
1590.290024	687.4000244
1590.799444	691.7999878
1591.30881	684.5999756
1591.818121	691.4000244
1592.327379	686.2000122
