1042.414189	678.4000244
1042.980685	682.2000122
1043.547124	679.0
1044.113505	678.0
1044.679828	677.5999756
1045.246093	674.4000244
1045.8123	678.0
1046.378449	676.2000122
1046.94454	678.0
1047.510573	674.7999878
1048.076548	676.7999878
1048.642465	674.2000122
1049.208325	680.5999756
1049.774126	675.5999756
1050.339869	672.2000122
1050.905555	674.0
1051.471183	672.7999878
1052.036752	671.2000122
1052.602264	671.0
1053.167718	671.2000122
1053.733114	672.0
1054.298452	668.7999878
1054.863733	670.2000122
1055.428955	671.5999756
1055.994119	669.0
1056.559226	669.7999878
1057.124275	672.4000244
1057.689266	669.5999756
1058.254199	668.0
1058.819074	672.5999756
1059.383891	667.7999878
1059.94865	670.0
1060.513352	671.0
1061.077996	669.2000122
1061.642582	672.2000122
1062.20711	670.4000244
1062.77158	669.0
1063.335992	671.0
1063.900347	669.0
1064.464643	670.0
1065.028882	670.2000122
1065.593063	670.7999878
1066.157187	670.4000244
1066.721252	670.0
1067.28526	668.4000244
1067.84921	669.2000122
1068.413102	667.4000244
1068.976936	667.4000244
1069.540713	666.4000244
1070.104431	675.0
1070.668092	672.2000122
1071.231696	668.2000122
1071.795241	669.4000244
1072.358729	670.4000244
1072.922159	668.7999878
1073.485531	669.7999878
1074.048845	666.0
1074.612102	668.5999756
1075.175301	669.2000122
1075.738442	669.7999878
1076.301525	668.0
1076.864551	666.5999756
1077.427519	670.0
1077.990429	667.2000122
1078.553281	669.2000122
1079.116076	668.7999878
1079.678813	667.0
1080.241492	667.5999756
1080.804114	667.5999756
1081.366678	667.2000122
1081.929184	669.0
1082.491633	669.5999756
1083.054024	664.2000122
1083.616357	669.7999878
1084.178632	666.4000244
1084.74085	667.2000122
1085.30301	665.7999878
1085.865113	668.5999756
1086.427158	666.7999878
1086.989145	670.0
1087.551074	668.2000122
1088.112946	667.7999878
1088.67476	668.4000244
1089.236517	668.5999756
1089.798216	669.4000244
1090.359857	669.4000244
1090.92144	667.4000244
1091.482966	665.7999878
1092.044435	668.4000244
1092.605845	666.7999878
1093.167199	664.7999878
1093.728494	666.4000244
1094.289732	667.0
1094.850912	669.0
1095.412035	673.5999756
1095.9731	670.7999878
1096.534107	667.0
1097.095057	670.4000244
1097.65595	666.4000244
1098.216784	667.7999878
1098.777561	666.4000244
1099.338281	669.0
1099.898943	667.5999756
1100.459547	664.4000244
1101.020094	668.0
1101.580584	666.2000122
1102.141015	667.0
1102.701389	666.0
1103.261706	667.5999756
1103.821965	669.0
1104.382167	665.0
1104.942311	668.2000122
1105.502397	668.4000244
1106.062426	668.7999878
1106.622398	667.5999756
1107.182312	667.2000122
1107.742168	666.0
1108.301967	669.2000122
1108.861708	668.4000244
1109.421392	669.2000122
1109.981019	667.4000244
1110.540587	667.2000122
1111.100099	668.2000122
1111.659553	666.2000122
1112.218949	668.0
1112.778288	667.2000122
1113.33757	669.7999878
1113.896794	668.0
1114.45596	667.7999878
1115.015069	669.2000122
1115.574121	667.7999878
1116.133115	667.0
1116.692052	668.7999878
1117.250931	671.4000244
1117.809753	667.0
1118.368517	664.4000244
1118.927224	666.2000122
1119.485873	668.5999756
1120.044465	668.4000244
1120.603	667.2000122
1121.161477	667.2000122
1121.719897	666.2000122
1122.278259	669.5999756
1122.836564	666.0
1123.394812	669.4000244
1123.953002	670.0
1124.511135	670.2000122
1125.06921	668.7999878
1125.627228	669.5999756
1126.185189	668.5999756
1126.743092	670.4000244
1127.300938	673.5999756
1127.858726	675.5999756
1128.416457	671.2000122
1128.974131	672.2000122
1129.531748	675.4000244
1130.089307	671.7999878
1130.646808	669.4000244
1131.204252	671.5999756
1131.761639	666.7999878
1132.318969	670.4000244
1132.876241	669.7999878
1133.433456	667.5999756
1133.990614	666.2000122
1134.547714	665.7999878
1135.104757	667.2000122
1135.661743	668.4000244
1136.218671	668.4000244
1136.775542	664.2000122
1137.332356	667.2000122
1137.889112	666.7999878
1138.445811	666.7999878
1139.002453	665.5999756
1139.559037	667.2000122
1140.115565	667.0
1140.672035	664.5999756
1141.228447	666.7999878
1141.784803	667.7999878
1142.341101	665.4000244
1142.897342	669.5999756
1143.453525	669.2000122
1144.009651	668.4000244
1144.565721	667.5999756
1145.121732	666.5999756
1145.677687	667.7999878
1146.233584	668.7999878
1146.789424	669.4000244
1147.345207	669.2000122
1147.900933	668.4000244
1148.456601	667.7999878
1149.012212	667.4000244
1149.567766	667.5999756
1150.123263	666.5999756
1150.678702	670.0
1151.234085	673.4000244
1151.78941	671.4000244
1152.344678	668.2000122
1152.899888	668.0
1153.455042	666.5999756
1154.010138	664.4000244
1154.565177	667.0
1155.120159	668.4000244
1155.675084	665.7999878
1156.229951	670.4000244
1156.784762	669.2000122
1157.339515	670.0
1157.894211	667.0
1158.44885	668.7999878
1159.003432	669.5999756
1159.557956	670.7999878
1160.112424	669.4000244
1160.666834	671.0
1161.221187	668.0
1161.775483	668.2000122
1162.329722	668.4000244
1162.883904	667.7999878
1163.438029	667.4000244
1163.992096	667.4000244
1164.546107	668.5999756
1165.10006	669.2000122
1165.653956	668.4000244
1166.207795	668.5999756
1166.761577	668.2000122
1167.315302	667.5999756
1167.86897	666.7999878
1168.422581	666.0
1168.976134	666.5999756
1169.529631	667.5999756
1170.08307	667.5999756
1170.636453	668.2000122
1171.189778	667.7999878
1171.743046	665.5999756
1172.296257	667.0
1172.849412	664.7999878
1173.402509	666.7999878
1173.955549	668.0
1174.508532	668.0
1175.061458	667.5999756
1175.614327	664.2000122
1176.167138	664.7999878
1176.719893	665.5999756
1177.272591	665.2000122
1177.825232	667.7999878
1178.377816	664.7999878
1178.930342	669.5999756
1179.482812	669.5999756
1180.035225	666.4000244
1180.587581	666.4000244
1181.139879	665.7999878
1181.692121	667.2000122
1182.244306	668.2000122
1182.796434	670.4000244
1183.348504	665.5999756
1183.900518	666.5999756
1184.452475	665.2000122
1185.004375	666.0
1185.556218	665.7999878
1186.108004	664.0
1186.659733	667.0
1187.211405	669.2000122
1187.76302	667.4000244
1188.314578	666.0
1188.866079	664.2000122
1189.417523	666.2000122
1189.96891	667.0
1190.520241	668.7999878
1191.071514	666.5999756
1191.622731	669.0
1192.17389	667.7999878
1192.724993	667.2000122
1193.276039	683.2000122
1193.827027	667.5999756
1194.377959	667.5999756
1194.928834	666.0
1195.479653	668.5999756
1196.030414	668.7999878
1196.581118	666.4000244
1197.131766	665.4000244
1197.682356	666.2000122
1198.23289	667.4000244
1198.783367	666.0
1199.333786	665.5999756
1199.88415	667.7999878
1200.434456	664.5999756
1200.984705	668.5999756
1201.534898	665.7999878
1202.085033	668.0
1202.635112	663.5999756
1203.185134	669.4000244
1203.735099	666.7999878
1204.285007	666.7999878
1204.834859	665.7999878
1205.384653	664.4000244
1205.934391	667.4000244
1206.484072	666.5999756
1207.033696	667.7999878
1207.583263	668.0
1208.132774	666.5999756
1208.682228	669.0
1209.231624	667.7999878
1209.780965	665.5999756
1210.330248	668.2000122
1210.879474	667.7999878
1211.428644	666.7999878
1211.977757	668.0
1212.526813	666.5999756
1213.075813	667.5999756
1213.624755	666.4000244
1214.173641	667.2000122
1214.72247	669.2000122
1215.271242	667.2000122
1215.819958	668.4000244
1216.368617	666.2000122
1216.917219	668.0
1217.465764	665.4000244
1218.014253	667.5999756
1218.562685	669.4000244
1219.11106	667.2000122
1219.659378	666.5999756
1220.20764	666.7999878
1220.755845	666.4000244
1221.303993	666.7999878
1221.852085	666.0
1222.400119	665.7999878
1222.948097	669.2000122
1223.496019	666.4000244
1224.043883	666.2000122
1224.591691	667.4000244
1225.139443	670.0
1225.687137	669.2000122
1226.234775	666.5999756
1226.782357	665.0
1227.329881	668.0
1227.877349	665.5999756
1228.42476	668.5999756
1228.972115	669.2000122
1229.519413	667.0
1230.066654	667.2000122
1230.613839	668.7999878
1231.160967	667.2000122
1231.708038	667.5999756
1232.255053	668.0
1232.802011	666.2000122
1233.348912	664.7999878
1233.895757	665.7999878
1234.442545	670.2000122
1234.989277	667.2000122
1235.535951	664.0
1236.08257	668.4000244
1236.629131	668.7999878
1237.175636	669.4000244
1237.722085	668.4000244
1238.268477	668.2000122
1238.814812	668.4000244
1239.361091	666.5999756
1239.907313	666.2000122
1240.453478	667.0
1240.999587	665.2000122
1241.54564	666.5999756
1242.091636	666.4000244
1242.637575	671.4000244
1243.183457	668.2000122
1243.729284	668.2000122
1244.275053	666.5999756
1244.820766	667.7999878
1245.366423	665.4000244
1245.912022	667.2000122
1246.457566	671.4000244
1247.003053	666.4000244
1247.548483	667.4000244
1248.093857	667.2000122
1248.639174	668.4000244
1249.184435	668.4000244
1249.729639	667.2000122
1250.274787	664.5999756
1250.819878	668.4000244
1251.364912	668.0
1251.909891	668.4000244
1252.454812	666.0
1252.999677	669.7999878
1253.544486	667.4000244
1254.089238	667.4000244
1254.633934	667.0
1255.178573	667.2000122
1255.723156	666.0
1256.267682	666.7999878
1256.812152	669.2000122
1257.356565	668.5999756
1257.900922	667.7999878
1258.445223	667.2000122
1258.989467	668.7999878
1259.533654	669.0
1260.077785	679.5999756
1260.62186	669.0
1261.165878	670.7999878
1261.70984	670.4000244
1262.253745	667.5999756
1262.797594	670.7999878
1263.341386	666.2000122
1263.885123	668.5999756
1264.428802	672.4000244
1264.972425	674.4000244
1265.515992	686.5999756
1266.059503	693.5999756
1266.602957	681.4000244
1267.146354	673.4000244
1267.689696	671.7999878
1268.23298	668.0
1268.776209	668.4000244
1269.319381	670.2000122
1269.862497	665.4000244
1270.405556	666.0
1270.948559	666.5999756
1271.491506	667.5999756
1272.034396	665.5999756
1272.57723	667.2000122
1273.120007	668.7999878
1273.662728	668.0
1274.205393	666.7999878
1274.748002	668.7999878
1275.290554	667.0
1275.83305	668.7999878
1276.375489	668.4000244
1276.917872	667.7999878
1277.460199	664.2000122
1278.00247	670.7999878
1278.544684	671.4000244
1279.086842	667.4000244
1279.628943	667.2000122
1280.170989	666.7999878
1280.712978	668.7999878
1281.25491	670.0
1281.796787	666.2000122
1282.338607	672.5999756
1282.880371	672.4000244
1283.422078	675.2000122
1283.963729	675.7999878
1284.505324	684.5999756
1285.046863	711.5999756
1285.588345	818.7999878
1286.129772	979.4000244
1286.671142	875.4000244
1287.212455	726.0
1287.753713	688.7999878
1288.294914	676.0
1288.836059	670.2000122
1289.377147	670.4000244
1289.91818	669.7999878
1290.459156	669.7999878
1291.000076	667.4000244
1291.54094	669.5999756
1292.081747	667.7999878
1292.622499	668.5999756
1293.163194	666.0
1293.703833	669.0
1294.244415	668.0
1294.784942	668.7999878
1295.325412	667.5999756
1295.865826	667.4000244
1296.406184	668.0
1296.946486	667.4000244
1297.486731	670.4000244
1298.026921	666.5999756
1298.567054	668.5999756
1299.107131	667.2000122
1299.647152	669.5999756
1300.187116	668.0
1300.727025	665.4000244
1301.266877	668.5999756
1301.806673	666.7999878
1302.346413	666.2000122
1302.886097	667.5999756
1303.425725	665.7999878
1303.965297	666.5999756
1304.504812	666.5999756
1305.044272	670.2000122
1305.583675	666.4000244
1306.123022	667.7999878
1306.662313	665.4000244
1307.201548	673.7999878
1308.279849	673.7999878
1308.818916	667.2000122
1309.357926	668.2000122
1309.896881	670.0
1310.435779	663.5999756
1310.974621	666.0
1311.513407	667.7999878
1312.052137	666.5999756
1312.590811	665.2000122
1313.129429	667.2000122
1313.667991	667.5999756
1314.206497	668.2000122
1314.744946	666.2000122
1315.28334	666.0
1315.821678	666.7999878
1316.359959	666.5999756
1316.898184	667.2000122
1317.436354	668.2000122
1317.974467	666.0
1318.512525	666.4000244
1319.050526	669.2000122
1319.588471	666.0
1320.12636	669.4000244
1320.664194	665.0
1321.201971	667.7999878
1321.739692	667.2000122
1322.277357	664.4000244
1322.814967	668.4000244
1323.35252	666.5999756
1323.890017	670.5999756
1324.427458	666.7999878
1324.964843	664.7999878
1325.502173	662.7999878
1326.039446	666.0
1326.576663	666.0
1327.113824	665.4000244
1327.65093	666.2000122
1328.187979	665.5999756
1328.724972	666.7999878
1329.26191	666.5999756
1329.798791	666.7999878
1330.335617	668.4000244
1330.872386	664.5999756
1331.4091	669.5999756
1331.945758	667.5999756
1332.48236	666.0
1333.018905	666.0
1333.555395	667.0
1334.091829	668.7999878
1334.628207	669.5999756
1335.164529	666.5999756
1335.700796	668.2000122
1336.237006	667.4000244
1336.77316	667.7999878
1337.309259	669.0
1337.845301	670.2000122
1338.381288	666.5999756
1338.917219	666.4000244
1339.453094	666.0
1339.988913	666.5999756
1340.524676	667.7999878
1341.060383	665.4000244
1341.596034	666.7999878
1342.13163	668.4000244
1342.66717	666.4000244
1343.202653	666.4000244
1343.738081	666.2000122
1344.273453	667.2000122
1344.80877	668.0
1345.34403	667.2000122
1345.879235	667.0
1346.414383	666.7999878
1346.949476	667.4000244
1347.484513	665.4000244
1348.019494	668.4000244
1348.55442	667.5999756
1349.089289	666.7999878
1349.624103	667.7999878
1350.158861	666.0
1350.693563	667.4000244
1351.228209	668.4000244
1351.7628	668.0
1352.297334	667.7999878
1352.831813	667.5999756
1353.366236	669.4000244
1353.900604	668.7999878
1354.434915	666.7999878
1354.969171	667.2000122
1355.503371	665.0
1356.037515	665.2000122
1356.571604	667.5999756
1357.105636	668.0
1357.639613	666.5999756
1358.173535	667.2000122
1358.7074	665.0
1359.24121	667.2000122
1359.774964	666.5999756
1360.308662	666.7999878
1360.842304	667.5999756
1361.375891	667.0
1361.909422	667.0
1362.442897	668.0
1362.976317	665.7999878
1363.50968	670.0
1364.042989	668.7999878
1364.576241	667.4000244
1365.109438	670.0
1365.642579	665.5999756
1366.175664	666.5999756
1366.708693	666.0
1367.241667	671.2000122
1367.774585	670.5999756
1368.307448	667.2000122
1368.840255	666.7999878
1369.373006	669.5999756
1369.905701	663.4000244
1370.438341	669.0
1370.970925	672.7999878
1371.503454	672.4000244
1372.035926	664.7999878
1372.568344	670.2000122
1373.100705	663.2000122
1373.633011	669.4000244
1374.165261	667.4000244
1374.697456	668.7999878
1375.229595	666.2000122
1375.761678	666.7999878
1376.293705	668.0
1376.825677	667.7999878
1377.357594	666.2000122
1377.889455	667.2000122
1378.42126	667.0
1378.953009	668.7999878
1379.484703	668.7999878
1380.016342	667.5999756
1380.547924	670.2000122
1381.079452	667.2000122
1381.610923	666.7999878
1382.142339	668.0
1382.673699	667.4000244
1383.205004	670.0
1383.736253	668.5999756
1384.267447	668.5999756
1384.798585	669.7999878
1385.329668	670.4000244
1385.860695	670.2000122
1386.391666	671.4000244
1386.922582	678.7999878
1387.453442	680.7999878
1387.984247	695.0
1388.514996	749.7999878
1389.04569	1034.199951
1389.576328	1224.400024
1390.10691	855.7999878
1390.637437	704.2000122
1391.167909	682.4000244
1391.698325	672.2000122
1392.228685	672.7999878
1392.75899	669.2000122
1393.28924	669.2000122
1393.819434	675.4000244
1394.349572	670.7999878
1394.879655	669.2000122
1395.409683	667.0
1395.939655	667.5999756
1396.469571	668.2000122
1396.999432	666.5999756
1397.529237	667.0
1398.058987	668.2000122
1398.588682	667.5999756
1399.118321	669.2000122
1399.647905	665.2000122
1400.177433	667.7999878
1400.706906	666.0
1401.236323	669.5999756
1401.765685	667.5999756
1402.294991	667.0
1402.824242	668.0
1403.353437	664.2000122
1403.882577	668.0
1404.411662	665.7999878
1404.940691	666.4000244
1405.469665	667.5999756
1405.998583	669.7999878
1406.527446	668.5999756
1407.056253	666.7999878
1407.585005	668.0
1408.113702	668.2000122
1408.642343	670.2000122
1409.170929	671.4000244
1409.69946	679.0
1410.227935	692.5999756
1410.756354	708.5999756
1411.284719	694.2000122
1411.813028	674.2000122
1412.341281	671.0
1412.869479	668.7999878
1413.397622	668.4000244
1413.92571	666.4000244
1414.453742	668.5999756
1414.981718	665.5999756
1415.50964	675.7999878
1416.037506	667.0
1416.565316	668.0
1417.093072	667.0
1417.620772	666.0
1418.148416	666.2000122
1418.676005	667.5999756
1419.203539	665.5999756
1419.731018	668.5999756
1420.258441	668.7999878
1420.785809	665.2000122
1421.313122	667.5999756
1421.840379	667.7999878
1422.367582	668.4000244
1422.894728	666.0
1423.42182	667.5999756
1423.948856	667.7999878
1424.475837	667.0
1425.002762	666.7999878
1425.529633	667.2000122
1426.056448	669.0
1426.583207	668.7999878
1427.109912	667.2000122
1427.636561	667.5999756
1428.163155	668.2000122
1428.689694	666.4000244
1429.216177	666.5999756
1429.742605	665.2000122
1430.268978	669.0
1430.795296	664.7999878
1431.321558	668.2000122
1431.847765	666.2000122
1432.373917	664.5999756
1432.900014	668.5999756
1433.426056	667.2000122
1433.952042	666.0
1434.477973	667.5999756
1435.003849	667.4000244
1435.529669	664.0
1436.055435	665.2000122
1436.581145	666.5999756
1437.1068	668.4000244
1437.632399	669.4000244
1438.157944	665.4000244
1438.683433	667.0
1439.208868	667.5999756
1439.734247	665.0
1440.25957	665.5999756
1440.784839	667.4000244
1441.310053	665.5999756
1441.835211	667.4000244
1442.360314	666.5999756
1442.885362	666.4000244
1443.410355	667.0
1443.935292	665.7999878
1444.460175	669.2000122
1444.985002	666.4000244
1445.509774	663.5999756
1446.034491	664.2000122
1446.559153	667.0
1447.08376	666.5999756
1447.608312	665.5999756
1448.132808	667.4000244
1448.65725	663.7999878
1449.181636	666.5999756
1449.705967	662.4000244
1450.230243	666.5999756
1450.754464	664.7999878
1451.27863	666.2000122
1451.802741	664.4000244
1452.326797	667.5999756
1452.850797	666.2000122
1453.374743	665.2000122
1453.898633	666.4000244
1454.422468	663.7999878
1454.946249	666.7999878
1455.469974	666.5999756
1455.993644	663.0
1456.517259	664.0
1457.040819	665.2000122
1457.564324	666.0
1458.087773	666.4000244
1458.611168	666.4000244
1459.134508	663.4000244
1459.657793	667.0
1460.181022	665.2000122
1460.704197	667.4000244
1461.227316	667.5999756
1461.750381	666.2000122
1462.27339	665.0
1462.796345	667.4000244
1463.319244	675.5999756
1463.842089	675.2000122
1464.364878	665.0
1464.887613	667.4000244
1465.410292	666.5999756
1465.932916	665.5999756
1466.455486	665.5999756
1466.978	668.0
1467.50046	663.0
1468.022864	664.5999756
1468.545214	666.4000244
1469.067508	670.0
1469.589748	666.5999756
1470.111932	666.5999756
1470.634062	665.7999878
1471.156136	666.5999756
1471.678156	664.2000122
1472.20012	667.0
1472.72203	664.0
1473.243885	665.4000244
1473.765685	664.2000122
1474.28743	664.2000122
1474.80912	665.0
1475.330755	664.7999878
1475.852335	665.0
1476.37386	665.0
1476.89533	669.4000244
1477.416745	667.2000122
1477.938106	666.7999878
1478.459411	665.0
1478.980662	663.7999878
1479.501857	666.4000244
1480.022998	665.4000244
1480.544084	664.7999878
1481.065115	666.2000122
1481.586091	664.5999756
1482.107012	668.2000122
1482.627878	663.7999878
1483.14869	664.5999756
1483.669446	665.2000122
1484.190148	663.2000122
1484.710794	665.4000244
1485.231386	664.5999756
1485.751923	665.4000244
1486.272406	663.5999756
1486.792833	663.0
1487.313205	665.2000122
1487.833523	664.2000122
1488.353786	666.5999756
1488.873994	666.7999878
1489.394147	665.0
1489.914245	664.7999878
1490.434288	665.4000244
1490.954277	666.4000244
1491.474211	663.5999756
1491.99409	665.2000122
1492.513914	665.2000122
1493.033683	663.4000244
1493.553398	665.2000122
1494.073057	667.0
1494.592662	662.5999756
1495.112212	663.7999878
1495.631708	666.4000244
1496.151148	666.2000122
1496.670534	664.0
1497.189865	665.2000122
1497.709141	663.4000244
1498.228362	664.4000244
1498.747529	665.0
1499.266641	663.5999756
1499.785698	669.7999878
1500.3047	665.2000122
1500.823648	665.7999878
1501.34254	666.0
1501.861379	662.7999878
1502.380162	663.2000122
1502.89889	664.5999756
1503.417564	665.0
1503.936183	668.5999756
1504.454748	664.7999878
1504.973257	664.7999878
1505.491712	664.0
1506.010112	667.0
1506.528458	661.5999756
1507.046748	666.0
1507.564984	666.0
1508.083166	664.4000244
1508.601292	661.7999878
1509.119364	662.2000122
1509.637381	664.4000244
1510.155344	665.5999756
1510.673252	673.2000122
1511.191105	663.7999878
1511.708903	664.5999756
1512.226647	666.7999878
1512.744336	665.7999878
1513.261971	664.4000244
1513.77955	662.7999878
1514.297076	666.5999756
1514.814546	667.0
1515.331962	664.0
1515.849323	667.4000244
1516.366629	663.7999878
1516.883881	664.5999756
1517.401078	663.7999878
1517.918221	665.0
1518.435309	665.0
1518.952342	663.0
1519.469321	665.0
1519.986245	665.5999756
1520.503114	665.4000244
1521.019929	668.0
1521.536689	665.0
1522.053395	661.2000122
1522.570046	664.5999756
1523.086642	664.7999878
1523.603184	664.7999878
1524.119671	663.0
1524.636103	664.0
1525.152481	669.0
1525.668805	665.2000122
1526.185073	670.2000122
1526.701288	671.7999878
1527.217447	666.0
1527.733552	663.5999756
1528.249603	664.5999756
1528.765599	665.0
1529.28154	664.2000122
1529.797427	666.5999756
1530.313259	664.4000244
1530.829037	662.7999878
1531.34476	664.7999878
1531.860429	664.7999878
1532.376043	661.2000122
1532.891602	662.7999878
1533.407107	668.2000122
1533.922558	664.7999878
1534.437954	661.2000122
1534.953295	665.5999756
1535.468582	666.0
1535.983815	664.5999756
1536.498993	662.4000244
1537.014116	666.4000244
1537.529185	663.2000122
1538.044199	665.7999878
1538.559159	662.2000122
1539.074064	665.2000122
1539.588915	666.4000244
1540.103712	663.7999878
1540.618454	663.7999878
1541.133141	666.2000122
1541.647774	664.0
1542.162353	664.5999756
1542.676877	668.0
1543.191346	664.5999756
1543.705761	665.5999756
1544.220122	664.0
1544.734428	664.0
1545.24868	664.0
1545.762877	665.0
1546.27702	664.0
1546.791109	665.7999878
1547.305143	663.2000122
1547.819122	663.5999756
1548.333047	664.4000244
1548.846918	664.4000244
1549.360734	664.5999756
1549.874496	662.7999878
1550.388204	665.5999756
1550.901857	665.7999878
1551.415455	664.5999756
1551.929	663.0
1552.442489	665.5999756
1552.955925	665.4000244
1553.469306	664.5999756
1553.982632	661.5999756
1554.495905	667.2000122
1555.009123	665.7999878
1555.522286	665.2000122
1556.035395	664.5999756
1556.54845	663.5999756
1557.06145	665.4000244
1557.574396	665.5999756
1558.087288	667.0
1558.600125	665.5999756
1559.112908	661.7999878
1559.625637	665.0
1560.138311	666.5999756
1560.650931	667.2000122
1561.163497	663.4000244
1561.676008	666.2000122
1562.188465	667.2000122
1562.700867	665.0
1563.213216	663.4000244
1563.725509	665.2000122
1564.237749	665.2000122
1564.749934	664.2000122
1565.262065	666.0
1565.774142	664.0
1566.286164	666.2000122
1566.798132	667.2000122
1567.310046	667.7999878
1567.821906	666.0
1568.333711	664.5999756
1568.845462	664.4000244
1569.357158	668.2000122
1569.868801	666.7999878
1570.380389	665.4000244
1570.891922	663.0
1571.403402	663.5999756
1571.914827	665.0
1572.426198	666.4000244
1572.937515	664.2000122
1573.448777	665.0
1573.959985	662.4000244
1574.471139	663.5999756
1574.982239	666.0
1575.493285	665.2000122
1576.004276	663.7999878
1576.515213	663.2000122
1577.026096	663.7999878
1577.536924	664.2000122
1578.047698	666.5999756
1578.558419	665.2000122
1579.069084	662.7999878
1579.579696	663.4000244
1580.090254	665.2000122
1580.600757	663.5999756
1581.111206	667.2000122
1581.621601	663.4000244
1582.131941	666.0
1582.642228	664.2000122
1583.15246	664.2000122
1583.662638	664.0
1584.172762	664.4000244
1584.682832	665.5999756
1585.192847	663.7999878
1585.702809	663.4000244
1586.212716	664.5999756
1586.722569	666.4000244
1587.232368	660.5999756
1587.742113	663.5999756
1588.251803	663.7999878
1588.76144	663.4000244
1589.271022	667.0
1589.78055	666.2000122
1590.290024	662.0
1590.799444	664.7999878
1591.30881	660.7999878
1591.818121	665.2000122
1592.327379	662.4000244
