1042.414189	694.4000244
1042.980685	695.2000122
1043.547124	695.7999878
1044.113505	694.0
1044.679828	692.2000122
1045.246093	691.4000244
1045.8123	694.2000122
1046.378449	690.5999756
1046.94454	688.0
1047.510573	685.5999756
1048.076548	691.4000244
1048.642465	692.2000122
1049.208325	692.5999756
1049.774126	686.7999878
1050.339869	687.4000244
1050.905555	686.5999756
1051.471183	688.7999878
1052.036752	688.7999878
1052.602264	689.5999756
1053.167718	690.5999756
1053.733114	687.2000122
1054.298452	686.7999878
1054.863733	690.4000244
1055.428955	685.7999878
1055.994119	688.5999756
1056.559226	687.4000244
1057.124275	689.0
1057.689266	684.2000122
1058.254199	684.4000244
1058.819074	685.0
1059.383891	685.4000244
1059.94865	685.2000122
1060.513352	687.0
1061.077996	683.4000244
1061.642582	681.4000244
1062.20711	679.5999756
1062.77158	683.7999878
1063.335992	684.4000244
1063.900347	682.7999878
1064.464643	679.7999878
1065.028882	682.2000122
1065.593063	681.7999878
1066.157187	681.2000122
1066.721252	679.4000244
1067.28526	681.2000122
1067.84921	678.7999878
1068.413102	679.2000122
1068.976936	679.5999756
1069.540713	682.2000122
1070.104431	686.7999878
1070.668092	679.4000244
1071.231696	675.5999756
1071.795241	675.2000122
1072.358729	677.0
1072.922159	675.7999878
1073.485531	677.5999756
1074.048845	677.2000122
1074.612102	677.2000122
1075.175301	675.5999756
1075.738442	674.2000122
1076.301525	677.0
1076.864551	680.2000122
1077.427519	677.0
1077.990429	675.2000122
1078.553281	672.0
1079.116076	675.5999756
1079.678813	675.5999756
1080.241492	676.0
1080.804114	676.0
1081.366678	673.7999878
1081.929184	674.7999878
1082.491633	678.2000122
1083.054024	669.7999878
1083.616357	677.2000122
1084.178632	671.4000244
1084.74085	673.5999756
1085.30301	672.4000244
1085.865113	673.0
1086.427158	675.5999756
1086.989145	674.5999756
1087.551074	678.0
1088.112946	674.4000244
1088.67476	672.4000244
1089.236517	676.0
1089.798216	672.5999756
1090.359857	672.4000244
1090.92144	675.0
1091.482966	674.0
1092.044435	675.2000122
1092.605845	672.2000122
1093.167199	675.0
1093.728494	673.4000244
1094.289732	671.7999878
1094.850912	672.5999756
1095.412035	677.2000122
1095.9731	671.5999756
1096.534107	672.0
1097.095057	676.7999878
1097.65595	671.0
1098.216784	673.0
1098.777561	670.2000122
1099.338281	668.5999756
1099.898943	674.2000122
1100.459547	669.5999756
1101.020094	673.7999878
1101.580584	674.2000122
1102.141015	671.4000244
1102.701389	671.2000122
1103.261706	672.4000244
1103.821965	670.0
1104.382167	672.2000122
1104.942311	673.2000122
1105.502397	670.5999756
1106.062426	671.0
1106.622398	671.4000244
1107.182312	669.2000122
1107.742168	670.4000244
1108.301967	669.0
1108.861708	675.2000122
1109.421392	671.7999878
1109.981019	673.4000244
1110.540587	670.0
1111.100099	672.5999756
1111.659553	671.7999878
1112.218949	671.5999756
1112.778288	671.4000244
1113.33757	672.4000244
1113.896794	671.4000244
1114.45596	671.5999756
1115.015069	672.7999878
1115.574121	673.2000122
1116.133115	673.7999878
1116.692052	667.7999878
1117.250931	670.0
1117.809753	670.7999878
1118.368517	669.2000122
1118.927224	671.2000122
1119.485873	675.0
1120.044465	670.0
1120.603	671.7999878
1121.161477	666.5999756
1121.719897	670.4000244
1122.278259	671.4000244
1122.836564	675.4000244
1123.394812	671.2000122
1123.953002	674.5999756
1124.511135	674.7999878
1125.06921	673.0
1125.627228	672.7999878
1126.185189	670.5999756
1126.743092	673.4000244
1127.300938	675.7999878
1127.858726	674.0
1128.416457	676.2000122
1128.974131	676.5999756
1129.531748	677.0
1130.089307	675.4000244
1130.646808	679.0
1131.204252	675.0
1131.761639	675.5999756
1132.318969	671.0
1132.876241	674.2000122
1133.433456	675.5999756
1133.990614	671.5999756
1134.547714	671.2000122
1135.104757	671.5999756
1135.661743	672.2000122
1136.218671	671.4000244
1136.775542	671.2000122
1137.332356	672.4000244
1137.889112	672.0
1138.445811	672.7999878
1139.002453	671.0
1139.559037	671.4000244
1140.115565	675.5999756
1140.672035	669.4000244
1141.228447	674.7999878
1141.784803	672.7999878
1142.341101	673.4000244
1142.897342	671.2000122
1143.453525	675.4000244
1144.009651	677.7999878
1144.565721	677.5999756
1145.121732	674.4000244
1145.677687	671.5999756
1146.233584	674.5999756
1146.789424	673.5999756
1147.345207	677.7999878
1147.900933	678.5999756
1148.456601	681.2000122
1149.012212	679.2000122
1149.567766	679.7999878
1150.123263	682.4000244
1150.678702	705.2000122
1151.234085	742.7999878
1151.78941	727.5999756
1152.344678	687.5999756
1152.899888	673.7999878
1153.455042	673.2000122
1154.010138	673.4000244
1154.565177	673.2000122
1155.120159	675.7999878
1155.675084	671.4000244
1156.229951	671.2000122
1156.784762	673.4000244
1157.339515	673.4000244
1157.894211	673.0
1158.44885	674.2000122
1159.003432	674.7999878
1159.557956	671.0
1160.112424	673.0
1160.666834	671.4000244
1161.221187	670.5999756
1161.775483	672.7999878
1162.329722	672.4000244
1162.883904	672.2000122
1163.438029	670.5999756
1163.992096	675.4000244
1164.546107	672.2000122
1165.10006	671.5999756
1165.653956	673.7999878
1166.207795	672.2000122
1166.761577	673.0
1167.315302	672.0
1167.86897	671.4000244
1168.422581	670.0
1168.976134	672.5999756
1169.529631	670.5999756
1170.08307	669.0
1170.636453	672.5999756
1171.189778	667.5999756
1171.743046	672.4000244
1172.296257	668.5999756
1172.849412	668.5999756
1173.402509	669.0
1173.955549	670.5999756
1174.508532	669.2000122
1175.061458	672.0
1175.614327	669.7999878
1176.167138	672.4000244
1176.719893	674.4000244
1177.272591	671.4000244
1177.825232	671.7999878
1178.377816	674.4000244
1178.930342	673.2000122
1179.482812	672.7999878
1180.035225	671.4000244
1180.587581	671.7999878
1181.139879	669.7999878
1181.692121	670.7999878
1182.244306	671.0
1182.796434	671.7999878
1183.348504	670.5999756
1183.900518	672.2000122
1184.452475	672.2000122
1185.004375	673.4000244
1185.556218	674.4000244
1186.108004	673.0
1186.659733	674.7999878
1187.211405	672.2000122
1187.76302	671.0
1188.314578	672.0
1188.866079	671.7999878
1189.417523	671.7999878
1189.96891	674.2000122
1190.520241	670.0
1191.071514	670.7999878
1191.622731	673.2000122
1192.17389	674.2000122
1192.724993	671.7999878
1193.276039	688.5999756
1193.827027	672.7999878
1194.377959	673.4000244
1194.928834	673.4000244
1195.479653	672.7999878
1196.030414	671.0
1196.581118	673.4000244
1197.131766	673.0
1197.682356	669.7999878
1198.23289	674.0
1198.783367	671.4000244
1199.333786	672.2000122
1199.88415	674.2000122
1200.434456	675.2000122
1200.984705	672.2000122
1201.534898	673.5999756
1202.085033	672.7999878
1202.635112	672.2000122
1203.185134	671.7999878
1203.735099	672.4000244
1204.285007	672.7999878
1204.834859	674.7999878
1205.384653	673.2000122
1205.934391	673.0
1206.484072	672.5999756
1207.033696	673.7999878
1207.583263	673.7999878
1208.132774	674.0
1208.682228	671.5999756
1209.231624	672.0
1209.780965	677.4000244
1210.330248	674.0
1210.879474	675.5999756
1211.428644	673.0
1211.977757	673.7999878
1212.526813	673.5999756
1213.075813	675.0
1213.624755	671.4000244
1214.173641	670.2000122
1214.72247	672.7999878
1215.271242	674.7999878
1215.819958	671.5999756
1216.368617	676.2000122
1216.917219	672.7999878
1217.465764	675.7999878
1218.014253	675.0
1218.562685	675.4000244
1219.11106	674.5999756
1219.659378	672.5999756
1220.20764	674.5999756
1220.755845	676.5999756
1221.303993	671.2000122
1221.852085	672.7999878
1222.400119	673.7999878
1222.948097	673.5999756
1223.496019	673.4000244
1224.043883	672.7999878
1224.591691	676.2000122
1225.139443	675.7999878
1225.687137	676.7999878
1226.234775	673.0
1226.782357	672.0
1227.329881	673.2000122
1227.877349	675.5999756
1228.42476	673.4000244
1228.972115	675.5999756
1229.519413	675.5999756
1230.066654	672.0
1230.613839	673.4000244
1231.160967	672.4000244
1231.708038	672.4000244
1232.255053	730.4000244
1233.895757	676.7999878
1234.442545	675.4000244
1234.989277	671.7999878
1235.535951	673.4000244
1236.08257	673.4000244
1236.629131	672.2000122
1237.175636	678.2000122
1237.722085	675.7999878
1238.268477	674.2000122
1238.814812	671.4000244
1239.361091	674.4000244
1239.907313	673.4000244
1240.453478	673.5999756
1240.999587	674.7999878
1241.54564	672.7999878
1242.091636	674.2000122
1242.637575	672.2000122
1243.183457	672.2000122
1243.729284	671.7999878
1244.275053	677.2000122
1244.820766	671.7999878
1245.366423	676.7999878
1245.912022	674.0
1246.457566	671.4000244
1247.003053	672.4000244
1247.548483	671.0
1248.093857	673.0
1248.639174	674.0
1249.184435	673.5999756
1249.729639	674.7999878
1250.274787	675.0
1250.819878	671.7999878
1251.364912	674.4000244
1251.909891	674.7999878
1252.454812	675.2000122
1252.999677	676.5999756
1253.544486	673.2000122
1254.089238	675.5999756
1254.633934	672.5999756
1255.178573	674.7999878
1255.723156	675.0
1256.267682	675.0
1256.812152	677.2000122
1257.356565	673.5999756
1257.900922	674.5999756
1258.445223	674.0
1258.989467	675.7999878
1259.533654	674.5999756
1260.077785	685.2000122
1260.62186	673.5999756
1261.165878	675.7999878
1261.70984	676.7999878
1262.253745	676.5999756
1262.797594	672.2000122
1263.341386	674.0
1263.885123	675.7999878
1264.428802	676.7999878
1264.972425	681.2000122
1265.515992	685.2000122
1266.059503	687.0
1266.602957	681.7999878
1267.146354	678.0
1267.689696	674.4000244
1268.23298	674.5999756
1268.776209	676.0
1269.319381	676.4000244
1269.862497	674.2000122
1270.405556	672.2000122
1270.948559	675.0
1271.491506	675.5999756
1272.034396	675.4000244
1272.57723	672.0
1273.120007	673.7999878
1273.662728	673.7999878
1274.205393	672.7999878
1274.748002	677.4000244
1275.290554	674.4000244
1275.83305	672.2000122
1276.375489	675.0
1276.917872	675.0
1277.460199	673.5999756
1278.00247	674.5999756
1278.544684	675.4000244
1279.086842	675.0
1279.628943	674.7999878
1280.170989	673.4000244
1280.712978	674.0
1281.25491	674.7999878
1281.796787	671.2000122
1282.338607	675.4000244
1282.880371	678.0
1283.422078	676.5999756
1283.963729	679.2000122
1284.505324	683.5999756
1285.046863	707.2000122
1285.588345	780.2000122
1286.129772	863.0
1286.671142	785.4000244
1287.212455	706.5999756
1287.753713	681.2000122
1288.294914	678.4000244
1288.836059	672.4000244
1289.377147	676.0
1289.91818	676.7999878
1290.459156	675.5999756
1291.000076	675.0
1291.54094	675.7999878
1292.081747	670.0
1292.622499	674.7999878
1293.163194	673.0
1293.703833	674.5999756
1294.244415	673.7999878
1294.784942	672.0
1295.325412	672.7999878
1295.865826	673.0
1296.406184	673.5999756
1296.946486	671.2000122
1297.486731	673.0
1298.026921	670.7999878
1298.567054	671.7999878
1299.107131	672.4000244
1299.647152	673.4000244
1300.187116	675.2000122
1300.727025	671.7999878
1301.266877	673.4000244
1301.806673	672.2000122
1302.346413	671.2000122
1302.886097	671.7999878
1303.425725	672.7999878
1303.965297	669.5999756
1304.504812	671.4000244
1305.044272	672.2000122
1305.583675	670.7999878
1306.123022	670.5999756
1306.662313	675.5999756
1307.201548	671.0
1307.740727	672.7999878
1308.279849	671.0
1308.818916	671.5999756
1309.357926	673.2000122
1309.896881	671.4000244
1310.435779	674.4000244
1310.974621	672.5999756
1311.513407	670.0
1312.052137	671.4000244
1312.590811	672.2000122
1313.129429	672.0
1313.667991	671.7999878
1314.206497	670.2000122
1314.744946	673.5999756
1315.28334	673.4000244
1315.821678	672.2000122
1316.359959	673.7999878
1316.898184	673.2000122
1317.436354	672.0
1317.974467	670.2000122
1318.512525	671.7999878
1319.050526	671.7999878
1319.588471	671.5999756
1320.12636	672.2000122
1320.664194	673.0
1321.201971	672.4000244
1321.739692	671.2000122
1322.277357	669.5999756
1322.814967	670.4000244
1323.35252	670.7999878
1323.890017	676.0
1324.427458	673.4000244
1324.964843	675.0
1325.502173	675.5999756
1326.039446	674.0
1326.576663	675.0
1327.113824	672.2000122
1327.65093	673.2000122
1328.187979	669.0
1328.724972	670.2000122
1329.26191	673.0
1329.798791	671.7999878
1330.335617	672.4000244
1330.872386	670.0
1331.4091	671.7999878
1331.945758	672.4000244
1332.48236	673.4000244
1333.018905	670.5999756
1333.555395	673.0
1334.091829	672.7999878
1334.628207	671.7999878
1335.164529	673.4000244
1335.700796	670.0
1336.237006	672.5999756
1336.77316	672.4000244
1337.309259	672.2000122
1337.845301	673.5999756
1338.381288	671.0
1338.917219	674.0
1339.453094	671.7999878
1339.988913	673.7999878
1340.524676	671.7999878
1341.060383	670.4000244
1341.596034	672.0
1342.13163	668.7999878
1342.66717	671.5999756
1343.202653	673.7999878
1343.738081	672.5999756
1344.273453	673.4000244
1344.80877	673.4000244
1345.34403	670.2000122
1345.879235	672.2000122
1346.414383	673.2000122
1346.949476	670.4000244
1347.484513	677.2000122
1348.019494	669.7999878
1348.55442	670.4000244
1349.089289	671.5999756
1349.624103	672.0
1350.158861	671.0
1350.693563	673.0
1351.228209	673.7999878
1351.7628	674.5999756
1352.297334	672.2000122
1352.831813	669.2000122
1353.366236	671.5999756
1353.900604	674.4000244
1354.434915	674.0
1354.969171	671.4000244
1355.503371	674.2000122
1356.037515	671.0
1356.571604	672.4000244
1357.105636	670.7999878
1357.639613	673.4000244
1358.173535	671.2000122
1358.7074	673.7999878
1359.24121	675.2000122
1359.774964	670.7999878
1360.308662	673.2000122
1360.842304	669.2000122
1361.375891	673.2000122
1361.909422	671.4000244
1362.442897	672.5999756
1362.976317	677.0
1363.50968	672.0
1364.042989	675.0
1364.576241	673.0
1365.109438	674.2000122
1365.642579	671.2000122
1366.175664	670.5999756
1366.708693	672.5999756
1367.241667	673.2000122
1367.774585	672.0
1368.307448	671.7999878
1368.840255	675.4000244
1369.373006	669.7999878
1369.905701	674.5999756
1370.438341	674.7999878
1370.970925	677.7999878
1371.503454	676.4000244
1372.035926	674.2000122
1372.568344	670.5999756
1373.100705	671.2000122
1373.633011	673.2000122
1374.165261	674.4000244
1374.697456	671.5999756
1375.229595	674.7999878
1375.761678	674.7999878
1376.293705	671.4000244
1376.825677	674.7999878
1377.357594	673.5999756
1377.889455	673.7999878
1378.42126	673.7999878
1378.953009	672.0
1379.484703	671.0
1380.016342	673.2000122
1380.547924	670.7999878
1381.079452	674.0
1381.610923	675.4000244
1382.142339	673.5999756
1382.673699	672.7999878
1383.205004	672.7999878
1383.736253	673.2000122
1384.267447	673.7999878
1384.798585	677.7999878
1385.329668	673.5999756
1385.860695	679.5999756
1386.391666	679.7999878
1386.922582	681.2000122
1387.453442	682.2000122
1387.984247	693.7999878
1388.514996	734.2000122
1389.04569	914.0
1389.576328	981.0
1390.10691	769.2000122
1390.637437	695.5999756
1391.167909	679.7999878
1391.698325	676.5999756
1392.228685	676.2000122
1392.75899	675.5999756
1393.28924	674.0
1393.819434	673.5999756
1394.349572	673.0
1394.879655	672.5999756
1395.409683	675.4000244
1395.939655	674.0
1396.469571	674.5999756
1396.999432	676.4000244
1397.529237	673.4000244
1398.058987	675.0
1398.588682	673.0
1399.118321	676.2000122
1399.647905	674.2000122
1400.177433	674.0
1400.706906	676.0
1401.236323	671.5999756
1401.765685	671.2000122
1402.294991	673.2000122
1402.824242	673.7999878
1403.353437	671.2000122
1403.882577	670.2000122
1404.411662	674.5999756
1404.940691	671.2000122
1405.469665	672.2000122
1405.998583	674.4000244
1406.527446	673.5999756
1407.056253	670.4000244
1407.585005	674.4000244
1408.113702	674.2000122
1408.642343	675.2000122
1409.170929	677.4000244
1409.69946	679.7999878
1410.227935	692.7999878
1410.756354	699.7999878
1411.284719	690.0
1411.813028	676.0
1412.341281	675.4000244
1412.869479	674.0
1413.397622	675.0
1413.92571	673.7999878
1414.453742	674.4000244
1414.981718	670.4000244
1415.50964	682.2000122
1416.037506	671.2000122
1416.565316	670.5999756
1417.093072	671.4000244
1417.620772	671.4000244
1418.148416	673.7999878
1418.676005	673.2000122
1419.203539	673.7999878
1419.731018	671.2000122
1420.258441	673.2000122
1420.785809	673.2000122
1421.313122	675.4000244
1421.840379	673.5999756
1422.367582	671.5999756
1422.894728	670.0
1423.42182	675.0
1423.948856	672.2000122
1424.475837	672.2000122
1425.002762	673.2000122
1425.529633	672.4000244
1426.056448	671.2000122
1426.583207	673.0
1427.109912	673.7999878
1427.636561	674.0
1428.163155	672.0
1428.689694	673.7999878
1429.216177	671.7999878
1429.742605	672.5999756
1430.268978	673.2000122
1430.795296	671.0
1431.321558	670.7999878
1431.847765	672.4000244
1432.373917	672.5999756
1432.900014	672.4000244
1433.426056	672.0
1433.952042	671.0
1434.477973	672.4000244
1435.003849	671.4000244
1435.529669	673.5999756
1436.055435	673.0
1436.581145	674.2000122
1437.1068	670.4000244
1437.632399	673.2000122
1438.157944	673.4000244
1438.683433	674.5999756
1439.208868	670.7999878
1439.734247	670.2000122
1440.25957	672.0
1440.784839	671.0
1441.310053	673.7999878
1441.835211	675.0
1442.360314	670.5999756
1442.885362	671.7999878
1443.410355	674.7999878
1443.935292	673.7999878
1444.460175	675.0
1444.985002	673.7999878
1445.509774	671.7999878
1446.034491	671.7999878
1446.559153	672.4000244
1447.08376	671.0
1447.608312	669.7999878
1448.132808	671.4000244
1448.65725	672.2000122
1449.181636	671.5999756
1449.705967	670.4000244
1450.230243	673.4000244
1450.754464	672.4000244
1451.27863	671.7999878
1451.802741	672.2000122
1452.326797	672.4000244
1452.850797	673.4000244
1453.374743	671.5999756
1453.898633	670.7999878
1454.422468	672.5999756
1454.946249	671.5999756
1455.469974	671.4000244
1455.993644	670.4000244
1456.517259	671.4000244
1457.040819	671.7999878
1457.564324	672.4000244
1458.087773	670.5999756
1458.611168	672.0
1459.134508	670.7999878
1459.657793	673.0
1460.181022	670.5999756
1460.704197	672.5999756
1461.227316	673.0
1461.750381	675.0
1462.27339	673.5999756
1462.796345	676.2000122
1463.319244	677.0
1463.842089	680.7999878
1464.364878	670.5999756
1464.887613	672.2000122
1465.410292	672.0
1465.932916	671.5999756
1466.455486	669.5999756
1466.978	677.0
1467.50046	670.7999878
1468.022864	671.4000244
1468.545214	674.7999878
1469.067508	674.2000122
1469.589748	672.4000244
1470.111932	673.4000244
1470.634062	672.0
1471.156136	669.4000244
1471.678156	668.7999878
1472.20012	674.0
1472.72203	674.2000122
1473.243885	673.5999756
1473.765685	674.5999756
1474.28743	672.0
1474.80912	672.5999756
1475.330755	672.2000122
1475.852335	672.2000122
1476.37386	671.2000122
1476.89533	669.2000122
1477.416745	673.5999756
1477.938106	671.0
1478.459411	674.2000122
1478.980662	671.2000122
1479.501857	673.0
1480.022998	672.7999878
1480.544084	672.4000244
1481.065115	675.0
1481.586091	669.4000244
1482.107012	672.7999878
1482.627878	673.5999756
1483.14869	672.2000122
1483.669446	673.0
1484.190148	674.7999878
1484.710794	671.5999756
1485.231386	668.2000122
1485.751923	676.0
1486.272406	672.0
1486.792833	673.0
1487.313205	670.7999878
1487.833523	674.0
1488.353786	671.4000244
1488.873994	673.5999756
1489.394147	669.5999756
1489.914245	673.5999756
1490.434288	669.5999756
1490.954277	674.0
1491.474211	668.7999878
1491.99409	670.2000122
1492.513914	671.5999756
1493.033683	673.0
1493.553398	672.0
1494.073057	670.5999756
1494.592662	674.7999878
1495.112212	669.5999756
1495.631708	673.5999756
1496.151148	672.2000122
1496.670534	674.5999756
1497.189865	672.5999756
1497.709141	670.7999878
1498.228362	675.4000244
1498.747529	670.4000244
1499.266641	673.5999756
1499.785698	677.2000122
1500.3047	673.2000122
1500.823648	674.2000122
1501.34254	675.2000122
1501.861379	673.0
1502.380162	674.4000244
1502.89889	671.5999756
1503.417564	672.0
1503.936183	672.2000122
1504.454748	672.5999756
1504.973257	672.7999878
1505.491712	670.5999756
1506.010112	672.7999878
1506.528458	672.0
1507.046748	673.0
1507.564984	672.0
1508.083166	671.7999878
1508.601292	670.0
1509.119364	671.4000244
1509.637381	673.0
1510.155344	670.7999878
1510.673252	676.4000244
1511.191105	670.5999756
1511.708903	670.0
1512.226647	674.2000122
1512.744336	671.2000122
1513.261971	671.0
1513.77955	673.0
1514.297076	673.0
1514.814546	672.7999878
1515.331962	672.5999756
1515.849323	673.4000244
1516.366629	672.7999878
1516.883881	671.5999756
1517.401078	671.4000244
1517.918221	670.0
1518.435309	672.4000244
1518.952342	672.0
1519.469321	672.2000122
1519.986245	672.0
1520.503114	670.5999756
1521.019929	676.5999756
1521.536689	670.7999878
1522.053395	674.5999756
1522.570046	672.0
1523.086642	673.2000122
1523.603184	671.7999878
1524.119671	670.0
1524.636103	672.4000244
1525.152481	673.7999878
1525.668805	671.2000122
1526.185073	676.0
1526.701288	682.4000244
1527.217447	676.5999756
1527.733552	672.2000122
1528.249603	671.5999756
1528.765599	672.4000244
1529.28154	674.2000122
1529.797427	671.7999878
1530.313259	670.2000122
1530.829037	673.5999756
1531.34476	671.5999756
1531.860429	673.0
1532.376043	673.7999878
1532.891602	671.5999756
1533.407107	673.7999878
1533.922558	673.7999878
1534.437954	673.7999878
1534.953295	674.2000122
1535.468582	671.0
1535.983815	672.2000122
1536.498993	673.4000244
1537.014116	674.0
1537.529185	670.5999756
1538.044199	673.2000122
1538.559159	674.0
1539.074064	671.7999878
1539.588915	675.2000122
1540.103712	671.4000244
1540.618454	669.7999878
1541.133141	673.2000122
1541.647774	672.2000122
1542.162353	672.7999878
1542.676877	670.0
1543.191346	673.4000244
1543.705761	672.0
1544.220122	672.0
1544.734428	672.7999878
1545.24868	674.0
1545.762877	672.5999756
1546.27702	672.0
1546.791109	671.4000244
1547.305143	675.7999878
1547.819122	675.5999756
1548.333047	671.0
1548.846918	673.7999878
1549.360734	672.7999878
1549.874496	672.7999878
1550.388204	673.0
1550.901857	673.2000122
1551.415455	673.4000244
1551.929	674.2000122
1552.442489	674.0
1552.955925	676.0
1553.469306	672.2000122
1553.982632	673.0
1554.495905	671.5999756
1555.009123	673.5999756
1555.522286	673.2000122
1556.035395	674.5999756
1556.54845	673.5999756
1557.06145	673.0
1557.574396	671.2000122
1558.087288	673.5999756
1558.600125	673.0
1559.112908	671.4000244
1559.625637	672.2000122
1560.138311	672.0
1560.650931	671.2000122
1561.163497	673.4000244
1561.676008	672.5999756
1562.188465	671.2000122
1562.700867	668.7999878
1563.213216	673.2000122
1563.725509	671.7999878
1564.237749	674.5999756
1564.749934	672.5999756
1565.262065	673.4000244
1565.774142	671.2000122
1566.286164	674.4000244
1566.798132	673.2000122
1567.310046	673.7999878
1567.821906	673.2000122
1568.333711	675.7999878
1568.845462	672.0
1569.357158	673.4000244
1569.868801	675.4000244
1570.380389	673.4000244
1570.891922	673.7999878
1571.403402	674.2000122
1571.914827	672.2000122
1572.426198	670.7999878
1572.937515	673.2000122
1573.448777	668.0
1573.959985	672.0
1574.471139	670.0
1574.982239	674.2000122
1575.493285	670.5999756
1576.004276	672.2000122
1576.515213	673.2000122
1577.026096	672.4000244
1577.536924	675.0
1578.047698	670.4000244
1578.558419	672.5999756
1579.069084	671.0
1579.579696	670.7999878
1580.090254	671.7999878
1580.600757	672.4000244
1581.111206	670.7999878
1581.621601	670.5999756
1582.131941	674.2000122
1582.642228	675.0
1583.15246	670.7999878
1583.662638	671.7999878
1584.172762	672.0
1584.682832	668.7999878
1585.192847	673.4000244
1585.702809	670.4000244
1586.212716	671.4000244
1586.722569	672.5999756
1587.232368	670.2000122
1587.742113	672.5999756
1588.251803	672.2000122
1588.76144	673.2000122
1589.271022	670.2000122
1589.78055	671.0
1590.290024	670.7999878
1590.799444	671.5999756
1591.30881	672.0
1591.818121	672.5999756
1592.327379	670.7999878
