1042.414189	690.0
1042.980685	689.7999878
1043.547124	686.7999878
1044.113505	690.4000244
1044.679828	688.2000122
1045.246093	684.5999756
1045.8123	685.0
1046.378449	684.2000122
1046.94454	682.7999878
1047.510573	684.5999756
1048.076548	682.5999756
1048.642465	680.2000122
1049.208325	683.0
1049.774126	682.4000244
1050.339869	682.2000122
1050.905555	681.0
1051.471183	686.0
1052.036752	681.7999878
1052.602264	681.0
1053.167718	680.0
1053.733114	681.4000244
1054.298452	678.0
1054.863733	679.2000122
1055.428955	675.5999756
1055.994119	678.2000122
1056.559226	674.2000122
1057.124275	676.7999878
1057.689266	679.2000122
1058.254199	677.5999756
1058.819074	677.4000244
1059.383891	676.7999878
1059.94865	678.5999756
1060.513352	677.4000244
1061.077996	677.2000122
1061.642582	677.7999878
1062.20711	680.0
1062.77158	677.0
1063.335992	675.4000244
1063.900347	676.2000122
1064.464643	678.5999756
1065.028882	675.5999756
1065.593063	675.4000244
1066.157187	677.2000122
1066.721252	678.7999878
1067.28526	675.7999878
1067.84921	673.2000122
1068.413102	675.2000122
1068.976936	675.7999878
1069.540713	675.5999756
1070.104431	681.7999878
1070.668092	672.0
1071.231696	672.5999756
1071.795241	673.0
1072.358729	673.2000122
1072.922159	677.4000244
1073.485531	675.5999756
1074.048845	676.2000122
1074.612102	674.7999878
1075.175301	675.7999878
1075.738442	676.0
1076.301525	676.2000122
1076.864551	673.4000244
1077.427519	675.4000244
1077.990429	673.5999756
1078.553281	675.2000122
1079.116076	673.2000122
1079.678813	674.5999756
1080.241492	674.4000244
1080.804114	675.5999756
1081.366678	677.7999878
1081.929184	675.4000244
1082.491633	677.7999878
1083.054024	674.4000244
1083.616357	676.7999878
1084.178632	674.2000122
1084.74085	673.2000122
1085.30301	675.0
1085.865113	676.0
1086.427158	679.2000122
1086.989145	673.7999878
1087.551074	676.2000122
1088.112946	674.0
1088.67476	674.0
1089.236517	677.7999878
1089.798216	672.5999756
1090.359857	673.5999756
1090.92144	673.7999878
1091.482966	674.2000122
1092.044435	669.4000244
1092.605845	674.0
1093.167199	674.4000244
1093.728494	675.0
1094.289732	674.0
1094.850912	675.4000244
1095.412035	677.7999878
1095.9731	674.2000122
1096.534107	676.2000122
1097.095057	679.2000122
1097.65595	675.0
1098.216784	674.5999756
1098.777561	676.2000122
1099.338281	674.2000122
1099.898943	672.7999878
1100.459547	674.7999878
1101.020094	673.4000244
1101.580584	673.0
1102.141015	672.2000122
1102.701389	676.4000244
1103.261706	674.5999756
1103.821965	676.4000244
1104.382167	673.5999756
1104.942311	675.2000122
1105.502397	672.5999756
1106.062426	672.2000122
1106.622398	675.5999756
1107.182312	673.4000244
1107.742168	674.7999878
1108.301967	673.5999756
1108.861708	675.4000244
1109.421392	675.0
1109.981019	674.5999756
1110.540587	678.2000122
1111.100099	676.5999756
1111.659553	670.7999878
1112.218949	674.4000244
1112.778288	673.4000244
1113.33757	674.5999756
1113.896794	675.0
1114.45596	674.7999878
1115.015069	672.0
1115.574121	677.5999756
1116.133115	677.7999878
1116.692052	672.0
1117.250931	676.5999756
1117.809753	674.0
1118.368517	676.7999878
1118.927224	674.5999756
1119.485873	675.4000244
1120.044465	675.7999878
1120.603	675.4000244
1121.161477	675.7999878
1121.719897	675.0
1122.278259	673.4000244
1122.836564	674.4000244
1123.394812	678.7999878
1123.953002	676.0
1124.511135	672.4000244
1125.06921	673.0
1125.627228	673.5999756
1126.185189	676.0
1126.743092	674.7999878
1127.300938	673.4000244
1127.858726	678.2000122
1128.416457	673.2000122
1128.974131	676.2000122
1129.531748	677.4000244
1130.089307	674.7999878
1130.646808	675.7999878
1131.204252	675.7999878
1131.761639	675.0
1132.318969	675.2000122
1132.876241	672.5999756
1133.433456	675.2000122
1133.990614	674.4000244
1134.547714	675.4000244
1135.104757	674.2000122
1135.661743	676.7999878
1136.218671	674.7999878
1136.775542	675.0
1137.332356	674.4000244
1137.889112	675.2000122
1138.445811	672.4000244
1139.002453	675.4000244
1139.559037	673.7999878
1140.115565	673.2000122
1140.672035	673.4000244
1141.228447	676.0
1141.784803	675.2000122
1142.341101	674.2000122
1142.897342	676.7999878
1143.453525	673.4000244
1144.009651	675.5999756
1144.565721	675.4000244
1145.121732	673.2000122
1145.677687	677.7999878
1146.233584	676.2000122
1146.789424	676.7999878
1147.345207	675.5999756
1147.900933	674.4000244
1148.456601	674.7999878
1149.012212	675.2000122
1149.567766	674.2000122
1150.123263	673.7999878
1150.678702	678.4000244
1151.234085	684.0
1151.78941	686.4000244
1152.344678	678.0
1152.899888	673.5999756
1153.455042	676.2000122
1154.010138	675.5999756
1154.565177	673.7999878
1155.120159	671.5999756
1155.675084	673.2000122
1156.229951	674.2000122
1156.784762	675.0
1157.339515	676.0
1157.894211	674.2000122
1158.44885	675.0
1159.003432	673.7999878
1159.557956	671.5999756
1160.112424	672.2000122
1160.666834	677.4000244
1161.221187	677.4000244
1161.775483	674.2000122
1162.329722	674.2000122
1162.883904	675.5999756
1163.438029	673.0
1163.992096	672.4000244
1164.546107	672.5999756
1165.10006	674.7999878
1165.653956	677.2000122
1166.207795	673.2000122
1166.761577	676.5999756
1167.315302	675.0
1167.86897	674.5999756
1168.422581	673.7999878
1168.976134	672.5999756
1169.529631	674.7999878
1170.08307	675.0
1170.636453	673.7999878
1171.189778	675.5999756
1171.743046	674.0
1172.296257	677.7999878
1172.849412	672.0
1173.402509	674.7999878
1173.955549	675.2000122
1174.508532	673.4000244
1175.061458	673.7999878
1175.614327	674.7999878
1176.167138	675.0
1176.719893	675.5999756
1177.272591	674.4000244
1177.825232	673.0
1178.377816	673.5999756
1178.930342	677.2000122
1179.482812	673.0
1180.035225	672.5999756
1180.587581	676.5999756
1181.139879	672.7999878
1181.692121	671.2000122
1182.244306	674.2000122
1182.796434	672.4000244
1183.348504	673.5999756
1183.900518	675.4000244
1184.452475	675.5999756
1185.004375	674.0
1185.556218	676.0
1186.108004	674.7999878
1186.659733	673.2000122
1187.211405	674.5999756
1187.76302	674.2000122
1188.314578	675.4000244
1188.866079	674.7999878
1189.417523	676.0
1189.96891	673.5999756
1190.520241	673.4000244
1191.071514	675.7999878
1191.622731	673.7999878
1192.17389	674.5999756
1192.724993	672.2000122
1193.276039	692.2000122
1193.827027	672.0
1194.377959	672.5999756
1194.928834	674.4000244
1195.479653	675.0
1196.030414	677.0
1196.581118	674.2000122
1197.131766	674.2000122
1197.682356	674.0
1198.23289	675.5999756
1198.783367	675.2000122
1199.333786	676.2000122
1199.88415	673.0
1200.434456	674.5999756
1200.984705	674.7999878
1201.534898	673.0
1202.085033	671.4000244
1202.635112	670.5999756
1203.185134	675.7999878
1203.735099	675.4000244
1204.285007	674.5999756
1204.834859	673.7999878
1205.384653	673.7999878
1205.934391	673.0
1206.484072	674.4000244
1207.033696	677.2000122
1207.583263	672.7999878
1208.132774	675.0
1208.682228	675.5999756
1209.231624	672.7999878
1209.780965	675.0
1210.330248	676.5999756
1210.879474	673.5999756
1211.428644	675.5999756
1211.977757	678.4000244
1212.526813	676.2000122
1213.075813	675.5999756
1213.624755	674.2000122
1214.173641	675.0
1214.72247	676.2000122
1215.271242	674.4000244
1215.819958	675.0
1216.368617	674.5999756
1216.917219	674.4000244
1217.465764	674.7999878
1218.014253	673.5999756
1218.562685	673.4000244
1219.11106	675.7999878
1219.659378	674.2000122
1220.20764	675.7999878
1220.755845	677.0
1221.303993	673.7999878
1221.852085	675.2000122
1222.400119	675.5999756
1222.948097	675.4000244
1223.496019	673.2000122
1224.043883	674.5999756
1224.591691	674.2000122
1225.139443	675.5999756
1225.687137	673.5999756
1226.234775	673.0
1226.782357	676.0
1227.329881	676.7999878
1227.877349	677.0
1228.42476	675.0
1228.972115	675.5999756
1229.519413	675.2000122
1230.066654	678.0
1230.613839	672.2000122
1231.160967	674.7999878
1231.708038	677.0
1232.255053	674.4000244
1232.802011	676.5999756
1233.348912	673.5999756
1233.895757	675.5999756
1234.442545	674.5999756
1234.989277	677.0
1235.535951	671.7999878
1236.08257	675.5999756
1236.629131	675.0
1237.175636	675.0
1237.722085	676.0
1238.268477	676.5999756
1238.814812	673.2000122
1239.361091	676.0
1239.907313	678.7999878
1240.453478	674.7999878
1240.999587	674.0
1241.54564	678.0
1242.091636	681.2000122
1242.637575	674.0
1243.183457	674.0
1243.729284	674.5999756
1244.275053	676.0
1244.820766	675.0
1245.366423	675.2000122
1245.912022	677.2000122
1246.457566	672.5999756
1247.003053	675.4000244
1247.548483	676.0
1248.093857	675.0
1248.639174	675.4000244
1249.184435	674.2000122
1249.729639	673.7999878
1250.274787	679.0
1250.819878	675.4000244
1251.364912	677.2000122
1251.909891	676.7999878
1252.454812	675.2000122
1252.999677	674.7999878
1253.544486	677.0
1254.089238	677.0
1254.633934	675.5999756
1255.178573	675.2000122
1255.723156	679.2000122
1256.267682	672.7999878
1256.812152	675.0
1257.356565	675.2000122
1257.900922	676.5999756
1258.445223	673.5999756
1258.989467	675.0
1259.533654	677.0
1260.077785	688.0
1260.62186	676.4000244
1261.165878	674.4000244
1261.70984	677.0
1262.253745	678.7999878
1262.797594	678.2000122
1263.341386	678.0
1263.885123	682.5999756
1264.428802	681.5999756
1264.972425	689.0
1265.515992	709.0
1266.059503	718.0
1266.602957	701.2000122
1267.146354	688.0
1267.689696	676.5999756
1268.23298	681.2000122
1268.776209	677.7999878
1269.319381	673.4000244
1269.862497	677.5999756
1270.405556	676.2000122
1270.948559	676.2000122
1271.491506	677.0
1272.034396	680.0
1272.57723	675.4000244
1273.120007	675.4000244
1273.662728	676.5999756
1274.205393	675.7999878
1274.748002	676.0
1275.290554	678.4000244
1275.83305	675.0
1276.375489	676.4000244
1276.917872	677.0
1277.460199	675.7999878
1278.00247	674.7999878
1278.544684	676.5999756
1279.086842	677.5999756
1279.628943	678.7999878
1280.170989	677.2000122
1280.712978	674.2000122
1281.25491	678.7999878
1281.796787	681.5999756
1282.338607	678.7999878
1282.880371	681.0
1283.422078	685.4000244
1283.963729	692.0
1284.505324	704.5999756
1285.046863	747.4000244
1285.588345	930.4000244
1286.129772	1253.199951
1286.671142	1043.599976
1287.212455	774.7999878
1287.753713	706.4000244
1288.294914	688.7999878
1288.836059	688.4000244
1289.377147	682.7999878
1289.91818	682.0
1290.459156	679.5999756
1291.000076	677.2000122
1291.54094	678.2000122
1292.081747	679.5999756
1292.622499	675.2000122
1293.163194	675.4000244
1293.703833	677.0
1294.244415	674.7999878
1294.784942	677.5999756
1295.325412	673.4000244
1295.865826	674.4000244
1296.406184	675.2000122
1296.946486	674.0
1297.486731	675.0
1298.026921	675.0
1298.567054	674.0
1299.107131	675.0
1299.647152	674.5999756
1300.187116	673.4000244
1300.727025	676.4000244
1301.266877	673.2000122
1301.806673	677.7999878
1302.346413	674.2000122
1302.886097	673.5999756
1303.425725	670.2000122
1303.965297	674.5999756
1304.504812	676.0
1305.044272	676.0
1305.583675	675.4000244
1306.123022	673.4000244
1306.662313	670.5999756
1307.201548	671.0
1307.740727	674.2000122
1308.279849	673.2000122
1308.818916	674.7999878
1309.357926	674.5999756
1309.896881	671.5999756
1310.435779	674.7999878
1310.974621	675.0
1311.513407	677.0
1312.052137	675.4000244
1312.590811	672.4000244
1313.129429	674.7999878
1313.667991	676.7999878
1314.206497	674.7999878
1314.744946	674.0
1315.28334	677.0
1315.821678	674.2000122
1316.359959	674.5999756
1316.898184	673.7999878
1317.436354	673.7999878
1317.974467	675.4000244
1318.512525	672.5999756
1319.050526	671.0
1319.588471	673.7999878
1320.12636	676.5999756
1320.664194	674.0
1321.201971	672.7999878
1321.739692	673.0
1322.277357	676.0
1322.814967	675.7999878
1323.35252	674.0
1323.890017	679.0
1324.427458	672.7999878
1324.964843	674.4000244
1325.502173	674.0
1326.039446	671.2000122
1326.576663	673.4000244
1327.113824	675.7999878
1327.65093	676.5999756
1328.187979	674.2000122
1328.724972	671.0
1329.26191	678.5999756
1329.798791	674.7999878
1330.335617	674.4000244
1330.872386	675.4000244
1331.4091	669.7999878
1331.945758	671.7999878
1332.48236	671.5999756
1333.018905	674.5999756
1333.555395	671.0
1334.091829	670.7999878
1334.628207	674.0
1335.164529	676.0
1335.700796	678.4000244
1336.237006	810.7999878
1338.381288	675.5999756
1338.917219	675.4000244
1339.453094	671.7999878
1339.988913	675.0
1340.524676	670.7999878
1341.060383	672.5999756
1341.596034	676.2000122
1342.13163	670.7999878
1342.66717	677.2000122
1343.202653	673.2000122
1343.738081	671.0
1344.273453	675.2000122
1344.80877	673.0
1345.34403	674.5999756
1345.879235	674.0
1346.414383	673.2000122
1346.949476	671.5999756
1347.484513	674.0
1348.019494	675.4000244
1348.55442	671.5999756
1349.089289	672.4000244
1349.624103	672.5999756
1350.158861	675.0
1350.693563	673.0
1351.228209	673.7999878
1351.7628	672.7999878
1352.297334	674.2000122
1352.831813	675.4000244
1353.366236	673.5999756
1353.900604	672.7999878
1354.434915	675.2000122
1354.969171	676.7999878
1355.503371	673.4000244
1356.037515	673.0
1356.571604	672.0
1357.105636	673.2000122
1357.639613	673.7999878
1358.173535	676.0
1358.7074	672.5999756
1359.24121	673.7999878
1359.774964	671.5999756
1360.308662	674.4000244
1360.842304	673.5999756
1361.375891	675.0
1361.909422	673.4000244
1362.442897	677.2000122
1362.976317	672.4000244
1363.50968	676.2000122
1364.042989	673.2000122
1364.576241	673.2000122
1365.109438	671.7999878
1365.642579	672.7999878
1366.175664	679.5999756
1366.708693	676.5999756
1367.241667	677.2000122
1367.774585	675.2000122
1368.307448	673.2000122
1368.840255	677.5999756
1369.373006	671.2000122
1369.905701	674.4000244
1370.438341	676.2000122
1370.970925	689.2000122
1371.503454	685.2000122
1372.035926	675.2000122
1372.568344	671.7999878
1373.100705	673.7999878
1373.633011	674.0
1374.165261	673.7999878
1374.697456	676.0
1375.229595	674.2000122
1375.761678	672.5999756
1376.293705	679.0
1376.825677	674.0
1377.357594	675.2000122
1377.889455	676.7999878
1378.42126	676.2000122
1378.953009	672.2000122
1379.484703	675.2000122
1380.016342	676.5999756
1380.547924	674.5999756
1381.079452	676.0
1381.610923	678.7999878
1382.142339	676.0
1382.673699	675.0
1383.205004	676.4000244
1383.736253	678.0
1384.267447	679.4000244
1384.798585	680.4000244
1385.329668	678.5999756
1385.860695	682.4000244
1386.391666	685.2000122
1386.922582	693.5999756
1387.453442	696.5999756
1387.984247	719.0
1388.514996	825.2000122
1389.04569	1320.0
1389.576328	1685.400024
1390.10691	990.7999878
1390.637437	742.2000122
1391.167909	701.7999878
1391.698325	689.2000122
1392.228685	688.0
1392.75899	681.2000122
1393.28924	676.0
1393.819434	679.2000122
1394.349572	679.4000244
1394.879655	677.7999878
1395.409683	676.7999878
1395.939655	677.0
1396.469571	677.0
1396.999432	676.7999878
1397.529237	678.4000244
1398.058987	675.4000244
1398.588682	674.4000244
1399.118321	676.2000122
1399.647905	675.0
1400.177433	674.5999756
1400.706906	675.2000122
1401.236323	677.4000244
1401.765685	673.4000244
1402.294991	672.0
1402.824242	675.2000122
1403.353437	676.2000122
1403.882577	673.5999756
1404.411662	672.7999878
1404.940691	676.2000122
1405.469665	675.0
1405.998583	674.2000122
1406.527446	673.2000122
1407.056253	675.5999756
1407.585005	677.0
1408.113702	677.4000244
1408.642343	677.5999756
1409.170929	681.4000244
1409.69946	693.2000122
1410.227935	721.5999756
1410.756354	755.0
1411.284719	727.7999878
1411.813028	691.7999878
1412.341281	679.5999756
1412.869479	676.0
1413.397622	674.5999756
1413.92571	675.0
1414.453742	675.5999756
1414.981718	674.4000244
1415.50964	686.4000244
1416.037506	675.4000244
1416.565316	676.0
1417.093072	674.2000122
1417.620772	674.0
1418.148416	675.0
1418.676005	675.4000244
1419.203539	674.4000244
1419.731018	672.0
1420.258441	669.7999878
1420.785809	673.0
1421.313122	670.5999756
1421.840379	673.5999756
1422.367582	670.7999878
1422.894728	672.4000244
1423.42182	671.5999756
1423.948856	675.4000244
1424.475837	673.7999878
1425.002762	671.5999756
1425.529633	675.2000122
1426.056448	674.0
1426.583207	676.0
1427.109912	676.4000244
1427.636561	673.7999878
1428.163155	671.0
1428.689694	674.0
1429.216177	672.2000122
1429.742605	671.7999878
1430.268978	672.2000122
1430.795296	673.5999756
1431.321558	673.7999878
1431.847765	673.4000244
1432.373917	671.2000122
1432.900014	672.4000244
1433.426056	672.7999878
1433.952042	669.4000244
1434.477973	672.4000244
1435.003849	670.5999756
1435.529669	670.5999756
1436.055435	672.5999756
1436.581145	671.7999878
1437.1068	672.4000244
1437.632399	671.5999756
1438.157944	669.2000122
1438.683433	669.2000122
1439.208868	670.2000122
1439.734247	670.7999878
1440.25957	673.0
1440.784839	668.0
1441.310053	672.4000244
1441.835211	671.2000122
1442.360314	672.4000244
1442.885362	672.5999756
1443.410355	670.5999756
1443.935292	673.5999756
1444.460175	668.4000244
1444.985002	670.2000122
1445.509774	669.7999878
1446.034491	669.2000122
1446.559153	669.7999878
1447.08376	669.2000122
1447.608312	669.2000122
1448.132808	667.0
1448.65725	669.5999756
1449.181636	672.2000122
1449.705967	668.7999878
1450.230243	671.0
1450.754464	670.7999878
1451.27863	670.5999756
1451.802741	672.2000122
1452.326797	669.5999756
1452.850797	671.0
1453.374743	666.0
1453.898633	670.7999878
1454.422468	670.7999878
1454.946249	673.4000244
1455.469974	669.7999878
1455.993644	669.5999756
1456.517259	670.0
1457.040819	668.0
1457.564324	670.2000122
1458.087773	668.2000122
1458.611168	670.0
1459.134508	670.7999878
1459.657793	666.5999756
1460.181022	671.4000244
1460.704197	671.4000244
1461.227316	671.2000122
1461.750381	666.5999756
1462.27339	672.0
1462.796345	669.7999878
1463.319244	676.2000122
1463.842089	674.5999756
1464.364878	668.5999756
1464.887613	668.2000122
1465.410292	668.5999756
1465.932916	667.0
1466.455486	669.4000244
1466.978	671.4000244
1467.50046	669.5999756
1468.022864	667.7999878
1468.545214	666.5999756
1469.067508	669.5999756
1469.589748	669.4000244
1470.111932	669.4000244
1470.634062	668.7999878
1471.156136	670.5999756
1471.678156	668.0
1472.20012	671.2000122
1472.72203	669.2000122
1473.243885	667.4000244
1473.765685	668.5999756
1474.28743	667.5999756
1474.80912	669.0
1475.330755	669.0
1475.852335	667.0
1476.37386	668.0
1476.89533	666.4000244
1477.416745	669.4000244
1477.938106	667.0
1478.459411	669.7999878
1478.980662	666.5999756
1479.501857	671.5999756
1480.022998	668.4000244
1480.544084	668.5999756
1481.065115	667.2000122
1481.586091	669.2000122
1482.107012	669.2000122
1482.627878	667.5999756
1483.14869	667.0
1483.669446	666.7999878
1484.190148	669.4000244
1484.710794	668.4000244
1485.231386	666.7999878
1485.751923	670.5999756
1486.272406	669.5999756
1486.792833	667.5999756
1487.313205	667.2000122
1487.833523	668.2000122
1488.353786	671.2000122
1488.873994	667.7999878
1489.394147	667.0
1489.914245	668.5999756
1490.434288	665.4000244
1490.954277	666.2000122
1491.474211	668.5999756
1491.99409	668.2000122
1492.513914	667.2000122
1493.033683	667.2000122
1493.553398	664.4000244
1494.073057	670.4000244
1494.592662	668.5999756
1495.112212	667.4000244
1495.631708	666.7999878
1496.151148	670.2000122
1496.670534	668.5999756
1497.189865	666.7999878
1497.709141	669.0
1498.228362	670.0
1498.747529	669.2000122
1499.266641	665.5999756
1499.785698	675.2000122
1500.3047	665.0
1500.823648	665.7999878
1501.34254	669.5999756
1501.861379	669.0
1502.380162	666.5999756
1502.89889	667.7999878
1503.417564	665.4000244
1503.936183	666.4000244
1504.454748	665.7999878
1504.973257	668.2000122
1505.491712	669.2000122
1506.010112	666.5999756
1506.528458	665.7999878
1507.046748	666.4000244
1507.564984	664.5999756
1508.083166	662.7999878
1508.601292	666.5999756
1509.119364	666.2000122
1509.637381	668.5999756
1510.155344	670.4000244
1510.673252	676.0
1511.191105	668.2000122
1511.708903	665.7999878
1512.226647	668.5999756
1512.744336	669.7999878
1513.261971	666.5999756
1513.77955	667.4000244
1514.297076	667.2000122
1514.814546	666.4000244
1515.331962	667.4000244
1515.849323	663.7999878
1516.366629	667.2000122
1516.883881	666.7999878
1517.401078	668.0
1517.918221	665.7999878
1518.435309	667.0
1518.952342	666.7999878
1519.469321	669.2000122
1519.986245	669.4000244
1520.503114	665.7999878
1521.019929	667.0
1521.536689	667.2000122
1522.053395	665.4000244
1522.570046	666.2000122
1523.086642	668.2000122
1523.603184	666.4000244
1524.119671	669.0
1524.636103	667.4000244
1525.152481	665.2000122
1525.668805	667.5999756
1526.185073	669.2000122
1526.701288	674.0
1527.217447	668.2000122
1527.733552	665.7999878
1528.249603	667.4000244
1528.765599	669.2000122
1529.28154	667.4000244
1529.797427	667.7999878
1530.313259	667.4000244
1530.829037	666.0
1531.34476	668.2000122
1531.860429	664.4000244
1532.376043	664.2000122
1532.891602	665.2000122
1533.407107	665.7999878
1533.922558	668.0
1534.437954	667.4000244
1534.953295	668.4000244
1535.468582	668.4000244
1535.983815	667.0
1536.498993	666.0
1537.014116	668.2000122
1537.529185	666.2000122
1538.044199	667.4000244
1538.559159	666.7999878
1539.074064	667.4000244
1539.588915	667.0
1540.103712	665.5999756
1540.618454	666.7999878
1541.133141	666.4000244
1541.647774	669.5999756
1542.162353	665.0
1542.676877	666.0
1543.191346	669.2000122
1543.705761	664.4000244
1544.220122	667.2000122
1544.734428	668.7999878
1545.24868	664.7999878
1545.762877	665.5999756
1546.27702	669.2000122
1546.791109	666.7999878
1547.305143	668.2000122
1547.819122	668.0
1548.333047	669.2000122
1548.846918	666.7999878
1549.360734	668.5999756
1549.874496	668.4000244
1550.388204	665.0
1550.901857	668.0
1551.415455	664.7999878
1551.929	665.0
1552.442489	667.7999878
1552.955925	668.0
1553.469306	668.0
1553.982632	667.2000122
1554.495905	666.2000122
1555.009123	667.0
1555.522286	665.0
1556.035395	665.5999756
1556.54845	670.0
1557.06145	669.5999756
1557.574396	667.5999756
1558.087288	667.0
1558.600125	668.5999756
1559.112908	668.5999756
1559.625637	668.4000244
1560.138311	666.2000122
1560.650931	667.5999756
1561.163497	669.5999756
1561.676008	667.4000244
1562.188465	668.5999756
1562.700867	668.4000244
1563.213216	668.5999756
1563.725509	667.0
1564.237749	668.7999878
1564.749934	668.7999878
1565.262065	669.7999878
1565.774142	669.0
1566.286164	668.4000244
1566.798132	666.0
1567.310046	668.2000122
1567.821906	668.7999878
1568.333711	669.5999756
1568.845462	667.0
1569.357158	667.2000122
1569.868801	668.4000244
1570.380389	665.5999756
1570.891922	666.5999756
1571.403402	662.5999756
1571.914827	667.0
1572.426198	666.5999756
1572.937515	664.5999756
1573.448777	666.7999878
1573.959985	665.4000244
1574.471139	664.5999756
1574.982239	667.0
1575.493285	666.0
1576.004276	667.7999878
1576.515213	668.2000122
1577.026096	664.4000244
1577.536924	665.0
1578.047698	664.5999756
1578.558419	664.2000122
1579.069084	667.7999878
1579.579696	666.0
1580.090254	664.4000244
1580.600757	668.0
1581.111206	665.4000244
1581.621601	668.4000244
1582.131941	668.7999878
1582.642228	665.5999756
1583.15246	664.2000122
1583.662638	665.5999756
1584.172762	664.5999756
1584.682832	668.2000122
1585.192847	666.4000244
1585.702809	667.2000122
1586.212716	664.7999878
1586.722569	666.4000244
1587.232368	666.5999756
1587.742113	663.4000244
1588.251803	667.0
1588.76144	666.5999756
1589.271022	665.5999756
1589.78055	666.2000122
1590.290024	667.2000122
1590.799444	667.4000244
1591.30881	666.2000122
1591.818121	668.7999878
1592.327379	665.2000122
