1042.414189	703.0
1042.980685	704.0
1043.547124	704.75
1044.113505	702.25
1044.679828	696.25
1045.246093	702.5
1045.8123	700.5
1046.378449	694.0
1046.94454	694.75
1047.510573	693.0
1048.076548	694.0
1048.642465	691.0
1049.208325	692.75
1049.774126	691.0
1050.339869	691.75
1050.905555	696.25
1051.471183	688.5
1052.036752	693.25
1052.602264	687.5
1053.167718	689.5
1053.733114	689.5
1054.298452	679.75
1054.863733	691.0
1055.428955	686.0
1055.994119	687.5
1056.559226	687.0
1057.124275	683.0
1057.689266	688.5
1058.254199	685.25
1058.819074	684.75
1059.383891	685.75
1059.94865	684.25
1060.513352	682.25
1061.077996	685.0
1061.642582	686.75
1062.20711	679.75
1062.77158	685.75
1063.335992	688.0
1063.900347	683.75
1064.464643	686.0
1065.028882	683.25
1065.593063	683.0
1066.157187	678.75
1066.721252	683.25
1067.28526	681.5
1067.84921	685.25
1068.413102	681.75
1068.976936	683.5
1069.540713	682.5
1070.104431	691.75
1070.668092	679.0
1071.231696	681.5
1071.795241	681.0
1072.358729	682.25
1072.922159	683.0
1073.485531	684.75
1074.048845	682.0
1074.612102	685.0
1075.175301	678.0
1075.738442	685.5
1076.301525	683.5
1076.864551	678.0
1077.427519	685.25
1077.990429	681.5
1078.553281	682.25
1079.116076	678.5
1079.678813	681.25
1080.241492	681.5
1080.804114	681.25
1081.366678	681.25
1081.929184	678.75
1082.491633	683.75
1083.054024	683.25
1083.616357	682.75
1084.178632	685.25
1084.74085	680.25
1085.30301	677.25
1085.865113	684.75
1086.427158	682.5
1086.989145	678.5
1087.551074	682.25
1088.112946	680.0
1088.67476	682.0
1089.236517	678.75
1089.798216	681.25
1090.359857	682.25
1090.92144	680.25
1091.482966	678.0
1092.044435	679.75
1092.605845	682.0
1093.167199	681.0
1093.728494	681.25
1094.289732	682.0
1094.850912	682.75
1095.412035	683.75
1095.9731	684.25
1096.534107	680.5
1097.095057	688.5
1097.65595	681.75
1098.216784	681.5
1098.777561	679.75
1099.338281	680.75
1099.898943	680.25
1100.459547	681.25
1101.020094	683.0
1101.580584	678.75
1102.141015	681.5
1102.701389	680.25
1103.261706	683.75
1103.821965	679.25
1104.382167	679.0
1104.942311	681.75
1105.502397	683.0
1106.062426	678.25
1106.622398	680.0
1107.182312	681.75
1107.742168	682.25
1108.301967	680.0
1108.861708	683.0
1109.421392	683.0
1109.981019	684.75
1110.540587	679.5
1111.100099	684.75
1111.659553	680.75
1112.218949	683.0
1112.778288	682.0
1113.33757	680.0
1113.896794	680.5
1114.45596	680.0
1115.015069	678.5
1115.574121	678.25
1116.133115	681.5
1116.692052	681.25
1117.250931	682.5
1117.809753	681.5
1118.368517	678.0
1118.927224	684.0
1119.485873	683.5
1120.044465	684.75
1120.603	683.25
1121.161477	682.5
1121.719897	685.75
1122.278259	680.75
1122.836564	679.75
1123.394812	682.75
1123.953002	682.25
1124.511135	680.0
1125.06921	683.25
1125.627228	683.5
1126.185189	682.0
1126.743092	680.75
1127.300938	680.75
1127.858726	680.25
1128.416457	683.75
1128.974131	685.25
1129.531748	684.25
1130.089307	684.0
1130.646808	686.5
1131.204252	680.25
1131.761639	683.75
1132.318969	681.0
1132.876241	678.75
1133.433456	682.5
1133.990614	680.75
1134.547714	680.0
1135.104757	682.25
1135.661743	679.5
1136.218671	682.0
1136.775542	681.0
1137.332356	683.0
1137.889112	683.25
1138.445811	680.5
1139.002453	682.25
1139.559037	681.0
1140.115565	682.25
1140.672035	681.5
1141.228447	683.5
1141.784803	679.5
1142.341101	682.25
1142.897342	684.5
1143.453525	682.0
1144.009651	681.25
1144.565721	680.5
1145.121732	683.75
1145.677687	682.75
1146.233584	682.75
1146.789424	684.0
1147.345207	684.75
1147.900933	683.75
1148.456601	682.5
1149.012212	685.25
1149.567766	683.5
1150.123263	686.0
1150.678702	692.0
1151.234085	702.75
1151.78941	712.25
1152.344678	695.75
1152.899888	686.0
1153.455042	684.5
1154.010138	685.5
1154.565177	682.0
1155.120159	682.5
1155.675084	680.75
1156.229951	682.5
1156.784762	685.5
1157.339515	681.5
1157.894211	683.0
1158.44885	685.0
1159.003432	682.25
1159.557956	686.75
1160.112424	680.25
1160.666834	680.5
1161.221187	681.0
1161.775483	681.75
1162.329722	684.75
1162.883904	680.25
1163.438029	682.25
1163.992096	684.25
1164.546107	682.25
1165.10006	683.5
1165.653956	683.5
1166.207795	682.25
1166.761577	681.5
1167.315302	685.25
1167.86897	680.25
1168.422581	684.25
1168.976134	681.0
1169.529631	683.0
1170.08307	684.5
1170.636453	681.75
1171.189778	681.25
1171.743046	681.75
1172.296257	682.75
1172.849412	681.0
1173.402509	676.75
1173.955549	683.25
1174.508532	681.25
1175.061458	684.25
1175.614327	676.0
1176.167138	679.0
1176.719893	681.25
1177.272591	682.5
1177.825232	683.5
1178.377816	682.75
1178.930342	681.25
1179.482812	683.25
1180.035225	681.75
1180.587581	682.5
1181.139879	679.0
1181.692121	681.25
1182.244306	682.0
1182.796434	684.25
1183.348504	681.75
1183.900518	681.75
1184.452475	684.0
1185.004375	682.0
1185.556218	679.25
1186.108004	678.0
1186.659733	684.0
1187.211405	677.5
1187.76302	683.5
1188.314578	678.5
1188.866079	681.5
1189.417523	680.5
1189.96891	684.25
1190.520241	680.0
1191.071514	679.75
1191.622731	682.25
1192.17389	680.5
1192.724993	680.75
1193.276039	702.0
1193.827027	679.75
1194.377959	678.5
1194.928834	682.25
1195.479653	683.5
1196.030414	683.5
1196.581118	682.0
1197.131766	683.5
1197.682356	683.75
1198.23289	681.5
1198.783367	681.75
1199.333786	679.75
1199.88415	679.25
1200.434456	682.75
1200.984705	682.5
1201.534898	683.25
1202.085033	679.25
1202.635112	683.0
1203.185134	678.75
1203.735099	679.75
1204.285007	683.5
1204.834859	681.0
1205.384653	681.25
1205.934391	683.75
1206.484072	682.25
1207.033696	684.75
1207.583263	681.0
1208.132774	681.0
1208.682228	683.25
1209.231624	682.5
1209.780965	682.25
1210.330248	684.0
1210.879474	681.5
1211.428644	681.75
1211.977757	683.25
1212.526813	682.0
1213.075813	688.25
1213.624755	685.75
1214.173641	678.0
1214.72247	683.5
1215.271242	683.75
1215.819958	685.0
1216.368617	683.5
1216.917219	682.75
1217.465764	682.25
1218.014253	686.25
1218.562685	680.75
1219.11106	682.0
1219.659378	684.25
1220.20764	684.75
1220.755845	682.5
1221.303993	682.5
1221.852085	682.25
1222.400119	684.75
1222.948097	686.0
1223.496019	685.25
1224.043883	686.5
1224.591691	683.75
1225.139443	682.0
1225.687137	687.5
1226.234775	681.75
1226.782357	681.75
1227.329881	683.25
1227.877349	682.25
1228.42476	681.5
1228.972115	685.75
1229.519413	681.25
1230.066654	681.75
1230.613839	682.0
1231.160967	682.5
1231.708038	686.5
1232.255053	685.0
1232.802011	682.25
1233.348912	686.25
1233.895757	685.75
1234.442545	680.75
1234.989277	683.0
1235.535951	685.0
1236.08257	681.5
1236.629131	683.5
1237.175636	685.75
1237.722085	682.75
1238.268477	686.5
1238.814812	681.5
1239.361091	681.25
1239.907313	684.0
1240.453478	680.0
1240.999587	682.5
1241.54564	681.75
1242.091636	680.25
1242.637575	684.0
1243.183457	683.5
1243.729284	686.75
1244.275053	681.75
1244.820766	685.25
1245.366423	679.75
1245.912022	684.5
1246.457566	680.0
1247.003053	684.5
1247.548483	679.25
1248.093857	681.25
1248.639174	681.5
1249.184435	686.0
1249.729639	682.5
1250.274787	685.0
1250.819878	681.0
1251.364912	684.0
1251.909891	681.5
1252.454812	680.25
1252.999677	682.0
1253.544486	677.0
1254.089238	682.5
1254.633934	677.75
1255.178573	679.75
1255.723156	678.75
1256.267682	681.5
1256.812152	680.0
1257.356565	680.5
1257.900922	680.0
1258.445223	685.25
1258.989467	683.25
1259.533654	679.25
1260.077785	697.25
1260.62186	689.25
1261.165878	682.25
1261.70984	681.5
1262.253745	680.0
1262.797594	678.25
1263.341386	682.75
1263.885123	684.75
1264.428802	683.0
1264.972425	687.75
1265.515992	704.25
1266.059503	722.0
1266.602957	711.0
1267.146354	691.5
1267.689696	687.25
1268.23298	684.75
1268.776209	688.25
1269.319381	683.25
1269.862497	683.0
1270.405556	682.0
1270.948559	677.75
1271.491506	678.5
1272.034396	679.75
1272.57723	684.5
1273.120007	680.5
1273.662728	682.0
1274.205393	682.0
1274.748002	680.75
1275.290554	681.25
1275.83305	682.25
1276.375489	678.0
1276.917872	676.0
1277.460199	674.5
1278.00247	677.5
1278.544684	681.25
1279.086842	682.75
1279.628943	677.0
1280.170989	677.75
1280.712978	681.25
1281.25491	679.0
1281.796787	683.25
1282.338607	676.0
1282.880371	685.0
1283.422078	682.75
1283.963729	688.25
1284.505324	690.25
1285.046863	706.5
1285.588345	782.0
1286.129772	1091.0
1286.671142	1196.0
1287.212455	826.75
1287.753713	709.75
1288.294914	693.75
1288.836059	686.5
1289.377147	684.75
1289.91818	684.25
1290.459156	681.5
1291.000076	681.75
1291.54094	681.25
1292.081747	679.75
1292.622499	676.75
1293.163194	677.5
1293.703833	677.75
1294.244415	680.75
1294.784942	679.25
1295.325412	680.0
1295.865826	680.0
1296.406184	680.25
1296.946486	679.25
1297.486731	676.0
1298.026921	679.75
1298.567054	680.75
1299.107131	677.5
1299.647152	677.0
1300.187116	678.75
1300.727025	677.75
1301.266877	675.75
1301.806673	678.5
1302.346413	677.75
1302.886097	680.0
1303.425725	682.0
1303.965297	675.25
1304.504812	676.5
1305.044272	678.75
1305.583675	679.25
1306.123022	680.5
1306.662313	676.25
1307.201548	677.0
1307.740727	680.0
1308.279849	679.25
1308.818916	680.25
1309.357926	680.25
1309.896881	676.0
1310.435779	679.75
1310.974621	679.75
1311.513407	676.0
1312.052137	679.75
1312.590811	677.25
1313.129429	679.0
1313.667991	678.0
1314.206497	678.5
1314.744946	679.0
1315.28334	677.5
1315.821678	679.25
1316.359959	682.5
1316.898184	684.5
1317.436354	675.5
1317.974467	677.25
1318.512525	683.25
1319.050526	679.75
1319.588471	679.25
1320.12636	677.75
1320.664194	678.5
1321.201971	678.5
1321.739692	680.25
1322.277357	677.75
1322.814967	680.25
1323.35252	676.5
1323.890017	683.0
1324.427458	675.0
1324.964843	675.0
1325.502173	681.0
1326.039446	676.5
1326.576663	683.0
1327.113824	680.75
1327.65093	677.0
1328.187979	679.0
1328.724972	678.75
1329.26191	679.5
1329.798791	679.25
1330.335617	677.0
1330.872386	676.5
1331.4091	679.75
1331.945758	679.5
1332.48236	679.0
1333.018905	678.25
1333.555395	679.5
1334.091829	675.75
1334.628207	679.5
1335.164529	680.25
1335.700796	678.75
1336.237006	676.5
1336.77316	681.25
1337.309259	679.25
1337.845301	679.0
1338.381288	679.0
1338.917219	682.25
1339.453094	678.5
1339.988913	679.0
1340.524676	682.25
1341.060383	679.5
1341.596034	678.0
1342.13163	681.75
1342.66717	678.25
1343.202653	682.75
1343.738081	677.75
1344.273453	677.0
1344.80877	682.25
1345.34403	678.5
1345.879235	679.75
1346.414383	677.75
1346.949476	679.5
1347.484513	678.25
1348.019494	677.25
1348.55442	679.75
1349.089289	681.5
1349.624103	679.5
1350.158861	677.5
1350.693563	681.75
1351.228209	679.75
1351.7628	679.0
1352.297334	679.25
1352.831813	679.0
1353.366236	676.0
1353.900604	679.5
1354.434915	681.75
1354.969171	682.25
1355.503371	683.5
1356.037515	681.25
1356.571604	676.75
1357.105636	678.25
1357.639613	678.5
1358.173535	679.25
1358.7074	682.5
1359.24121	678.5
1359.774964	680.0
1360.308662	680.75
1360.842304	679.5
1361.375891	680.0
1361.909422	679.75
1362.442897	681.25
1362.976317	679.5
1363.50968	679.75
1364.042989	679.75
1364.576241	680.25
1365.109438	680.5
1365.642579	678.5
1366.175664	678.0
1366.708693	677.0
1367.241667	681.25
1367.774585	677.5
1368.307448	680.25
1368.840255	680.25
1369.373006	681.0
1369.905701	681.25
1370.438341	682.75
1370.970925	688.0
1371.503454	689.25
1372.035926	678.0
1372.568344	682.5
1373.100705	682.25
1373.633011	673.5
1374.165261	679.25
1374.697456	681.5
1375.229595	680.25
1375.761678	681.75
1376.293705	677.5
1376.825677	680.75
1377.357594	682.0
1377.889455	676.5
1378.42126	681.5
1378.953009	679.25
1379.484703	678.75
1380.016342	679.5
1380.547924	682.75
1381.079452	676.25
1381.610923	678.0
1382.142339	679.75
1382.673699	680.25
1383.205004	679.25
1383.736253	681.25
1384.267447	682.25
1384.798585	683.5
1385.329668	683.75
1385.860695	681.75
1386.391666	685.75
1386.922582	687.75
1387.453442	689.5
1387.984247	701.5
1388.514996	741.25
1389.04569	1036.0
1389.576328	1704.5
1390.10691	1095.25
1390.637437	747.0
1391.167909	701.25
1391.698325	686.0
1392.228685	684.0
1392.75899	681.0
1393.28924	681.25
1393.819434	685.25
1394.349572	682.75
1394.879655	677.25
1395.409683	680.5
1395.939655	680.0
1396.469571	678.25
1396.999432	681.75
1397.529237	678.75
1398.058987	680.0
1398.588682	683.0
1399.118321	677.25
1399.647905	677.0
1400.177433	677.75
1400.706906	678.5
1401.236323	680.25
1401.765685	677.5
1402.294991	678.25
1402.824242	674.75
1403.353437	678.0
1403.882577	679.5
1404.411662	676.75
1404.940691	681.5
1405.469665	680.25
1405.998583	675.5
1406.527446	680.0
1407.056253	676.0
1407.585005	679.25
1408.113702	676.5
1408.642343	682.5
1409.170929	681.75
1409.69946	686.5
1410.227935	707.25
1410.756354	757.0
1411.284719	736.0
1411.813028	691.75
1412.341281	682.5
1412.869479	681.5
1413.397622	680.25
1413.92571	678.25
1414.453742	681.0
1414.981718	680.0
1415.50964	688.0
1416.037506	677.5
1416.565316	678.5
1417.093072	676.5
1417.620772	679.25
1418.148416	674.0
1418.676005	678.5
1419.203539	675.75
1419.731018	676.75
1420.258441	677.5
1420.785809	680.25
1421.313122	679.25
1421.840379	677.25
1422.367582	679.0
1422.894728	682.25
1423.42182	679.5
1423.948856	679.0
1424.475837	682.25
1425.002762	680.5
1425.529633	678.0
1426.056448	676.75
1426.583207	682.0
1427.109912	679.5
1427.636561	680.0
1428.163155	676.25
1428.689694	677.5
1429.216177	678.25
1429.742605	678.25
1430.268978	677.75
1430.795296	677.75
1431.321558	679.75
1431.847765	679.75
1432.373917	677.75
1432.900014	678.25
1433.426056	680.5
1433.952042	674.0
1434.477973	676.75
1435.003849	679.25
1435.529669	675.5
1436.055435	679.0
1436.581145	675.5
1437.1068	676.0
1437.632399	681.25
1438.157944	678.75
1438.683433	681.5
1439.208868	675.5
1439.734247	678.5
1440.25957	678.5
1440.784839	676.0
1441.310053	679.25
1441.835211	677.5
1442.360314	678.25
1442.885362	677.75
1443.410355	672.0
1443.935292	673.75
1444.460175	676.25
1444.985002	677.75
1445.509774	679.75
1446.034491	675.0
1446.559153	675.75
1447.08376	677.75
1447.608312	680.5
1448.132808	674.25
1448.65725	677.75
1449.181636	675.5
1449.705967	678.75
1450.230243	677.0
1450.754464	675.75
1451.27863	675.25
1451.802741	674.5
1452.326797	676.25
1452.850797	677.0
1453.374743	679.25
1453.898633	675.25
1454.422468	676.0
1454.946249	677.75
1455.469974	674.75
1455.993644	679.0
1456.517259	676.0
1457.040819	675.5
1457.564324	676.75
1458.087773	677.75
1458.611168	676.5
1459.134508	677.0
1459.657793	678.5
1460.181022	677.25
1460.704197	673.75
1461.227316	675.75
1461.750381	677.75
1462.27339	675.5
1462.796345	681.25
1463.319244	710.25
1463.842089	706.0
1464.364878	677.25
1464.887613	676.0
1465.410292	675.75
1465.932916	672.0
1466.455486	676.75
1466.978	673.75
1467.50046	676.25
1468.022864	676.5
1468.545214	675.75
1469.067508	676.0
1469.589748	678.25
1470.111932	676.0
1470.634062	675.5
1471.156136	677.25
1471.678156	676.75
1472.20012	675.75
1472.72203	677.75
1473.243885	678.0
1473.765685	676.75
1474.28743	674.5
1474.80912	678.0
1475.330755	673.25
1475.852335	679.0
1476.37386	679.0
1476.89533	673.25
1477.416745	677.5
1477.938106	676.75
1478.459411	675.25
1478.980662	675.75
1479.501857	675.5
1480.022998	672.75
1480.544084	676.5
1481.065115	673.75
1481.586091	673.75
1482.107012	676.75
1482.627878	676.25
1483.14869	674.5
1483.669446	674.0
1484.190148	671.75
1484.710794	674.25
1485.231386	673.0
1485.751923	675.25
1486.272406	674.75
1486.792833	675.25
1487.313205	676.75
1487.833523	675.5
1488.353786	671.5
1488.873994	674.75
1489.394147	675.25
1489.914245	676.5
1490.434288	677.5
1490.954277	674.25
1491.474211	678.25
1491.99409	671.75
1492.513914	674.0
1493.033683	674.75
1493.553398	673.75
1494.073057	672.0
1494.592662	674.75
1495.112212	676.5
1495.631708	676.5
1496.151148	674.0
1496.670534	675.25
1497.189865	674.25
1497.709141	671.0
1498.228362	674.25
1498.747529	677.5
1499.266641	674.25
1499.785698	683.0
1500.3047	678.0
1500.823648	675.5
1501.34254	676.5
1501.861379	673.25
1502.380162	680.0
1502.89889	670.5
1503.417564	676.25
1503.936183	675.0
1504.454748	673.75
1504.973257	677.25
1505.491712	674.5
1506.010112	673.75
1506.528458	674.25
1507.046748	675.5
1507.564984	674.25
1508.083166	674.75
1508.601292	676.0
1509.119364	674.25
1509.637381	672.25
1510.155344	674.5
1510.673252	679.5
1511.191105	672.75
1511.708903	675.25
1512.226647	676.25
1512.744336	677.0
1513.261971	673.25
1513.77955	673.25
1514.297076	675.0
1514.814546	671.25
1515.331962	676.75
1515.849323	674.0
1516.366629	675.5
1516.883881	675.25
1517.401078	674.5
1517.918221	676.0
1518.435309	676.25
1518.952342	675.0
1519.469321	676.25
1519.986245	675.0
1520.503114	675.0
1521.019929	674.0
1521.536689	676.75
1522.053395	673.5
1522.570046	674.25
1523.086642	675.0
1523.603184	675.0
1524.119671	673.5
1524.636103	674.25
1525.152481	676.25
1525.668805	674.25
1526.185073	691.5
1526.701288	701.25
1527.217447	677.25
1527.733552	674.25
1528.249603	674.75
1528.765599	670.0
1529.28154	674.0
1529.797427	677.0
1530.313259	676.75
1530.829037	670.5
1531.34476	674.0
1531.860429	674.0
1532.376043	675.75
1532.891602	676.25
1533.407107	673.25
1533.922558	674.75
1534.437954	674.5
1534.953295	673.0
1535.468582	673.5
1535.983815	676.75
1536.498993	672.75
1537.014116	674.75
1537.529185	674.25
1538.044199	673.75
1538.559159	670.5
1539.074064	673.5
1539.588915	677.25
1540.103712	675.0
1540.618454	673.75
1541.133141	676.25
1541.647774	673.75
1542.162353	673.0
1542.676877	672.75
1543.191346	673.0
1543.705761	672.25
1544.220122	673.5
1544.734428	672.5
1545.24868	672.25
1545.762877	671.25
1546.27702	674.75
1546.791109	674.25
1547.305143	676.5
1547.819122	670.25
1548.333047	677.5
1548.846918	673.75
1549.360734	676.0
1549.874496	673.0
1550.388204	675.0
1550.901857	676.75
1551.415455	675.5
1551.929	675.25
1552.442489	677.0
1552.955925	674.75
1553.469306	672.5
1553.982632	679.5
1554.495905	673.25
1555.009123	671.75
1555.522286	676.5
1556.035395	674.5
1556.54845	673.25
1557.06145	675.0
1557.574396	678.25
1558.087288	676.75
1558.600125	674.0
1559.112908	675.75
1559.625637	674.25
1560.138311	675.0
1560.650931	674.75
1561.163497	676.75
1561.676008	677.5
1562.188465	677.0
1562.700867	675.5
1563.213216	676.75
1563.725509	677.0
1564.237749	676.75
1564.749934	679.25
1565.262065	678.75
1565.774142	677.0
1566.286164	677.0
1566.798132	678.75
1567.310046	681.25
1567.821906	678.0
1568.333711	678.0
1568.845462	673.75
1569.357158	676.0
1569.868801	674.75
1570.380389	679.75
1570.891922	671.5
1571.403402	673.5
1571.914827	673.75
1572.426198	673.5
1572.937515	673.5
1573.448777	671.75
1573.959985	675.5
1574.471139	674.0
1574.982239	673.25
1575.493285	674.25
1576.004276	674.5
1576.515213	672.75
1577.026096	671.0
1577.536924	676.5
1579.069084	677.25
1579.579696	670.25
1580.090254	671.75
1580.600757	674.5
1581.111206	669.75
1581.621601	670.75
1582.131941	676.25
1582.642228	671.0
1583.15246	674.5
1583.662638	672.0
1584.172762	677.25
1584.682832	673.0
1585.192847	673.5
1585.702809	673.5
1586.212716	674.25
1586.722569	672.25
1587.232368	673.75
1587.742113	672.25
1588.251803	675.25
1588.76144	672.0
1589.271022	672.25
1589.78055	672.25
1590.290024	671.25
1590.799444	672.75
1591.30881	674.25
1591.818121	671.25
1592.327379	673.25
