1042.980685	738.5
1043.547124	742.0
1044.113505	743.0
1044.679828	738.0
1045.246093	735.25
1045.8123	734.75
1046.378449	734.25
1046.94454	732.75
1047.510573	732.25
1048.076548	730.0
1048.642465	721.25
1049.208325	730.25
1049.774126	726.5
1050.339869	729.0
1050.905555	727.75
1051.471183	730.0
1052.036752	719.75
1052.602264	723.25
1053.167718	722.5
1053.733114	725.0
1054.298452	724.25
1054.863733	719.0
1055.428955	716.25
1055.994119	721.5
1056.559226	722.5
1057.124275	716.75
1057.689266	722.75
1058.254199	714.0
1058.819074	720.0
1059.383891	715.5
1059.94865	720.75
1060.513352	714.5
1061.077996	723.0
1061.642582	719.75
1062.20711	718.25
1062.77158	716.5
1063.335992	718.5
1063.900347	714.5
1064.464643	719.5
1065.028882	719.0
1065.593063	716.75
1066.157187	716.0
1066.721252	714.75
1067.28526	712.5
1067.84921	716.0
1068.413102	713.0
1068.976936	712.25
1069.540713	718.0
1070.104431	720.5
1070.668092	712.75
1071.231696	712.75
1071.795241	716.25
1072.358729	711.25
1072.922159	713.0
1073.485531	711.0
1074.048845	709.25
1074.612102	714.5
1075.175301	712.5
1075.738442	712.25
1076.301525	714.75
1076.864551	711.25
1077.427519	715.25
1077.990429	713.5
1078.553281	711.75
1079.116076	710.5
1079.678813	713.5
1080.241492	719.0
1080.804114	711.5
1081.366678	711.25
1081.929184	710.75
1082.491633	714.25
1083.054024	712.0
1083.616357	708.0
1084.178632	713.75
1084.74085	708.5
1085.30301	711.5
1085.865113	710.25
1086.427158	712.25
1086.989145	710.5
1087.551074	709.5
1088.112946	708.75
1088.67476	704.0
1089.236517	706.0
1089.798216	706.75
1090.359857	707.5
1090.92144	707.25
1091.482966	708.5
1092.044435	706.5
1092.605845	705.25
1093.167199	708.25
1093.728494	709.0
1094.289732	708.25
1094.850912	703.75
1095.412035	709.0
1095.9731	704.25
1096.534107	703.25
1097.095057	714.25
1097.65595	706.0
1098.216784	706.25
1098.777561	704.25
1099.338281	706.25
1099.898943	705.0
1100.459547	706.5
1101.020094	704.5
1101.580584	704.25
1102.141015	709.0
1102.701389	704.75
1103.261706	706.25
1103.821965	707.0
1104.382167	703.75
1104.942311	706.0
1105.502397	701.0
1106.062426	704.5
1106.622398	702.75
1107.182312	704.75
1107.742168	703.75
1108.301967	702.75
1108.861708	712.5
1109.421392	706.0
1109.981019	709.0
1110.540587	703.75
1111.100099	706.25
1111.659553	705.5
1112.218949	702.75
1112.778288	704.25
1113.33757	707.75
1113.896794	705.75
1114.45596	705.0
1115.015069	702.25
1115.574121	705.75
1116.133115	711.0
1116.692052	701.75
1117.250931	705.75
1117.809753	703.25
1118.368517	705.25
1118.927224	706.5
1119.485873	705.75
1120.044465	701.0
1120.603	703.0
1121.161477	700.75
1121.719897	706.25
1122.278259	702.5
1122.836564	704.25
1123.394812	702.25
1123.953002	701.0
1124.511135	700.5
1125.06921	700.75
1125.627228	706.75
1126.185189	705.75
1126.743092	705.0
1127.300938	710.25
1127.858726	705.5
1128.416457	701.5
1128.974131	705.5
1129.531748	708.0
1130.089307	705.0
1130.646808	701.75
1131.204252	699.75
1131.761639	701.0
1132.318969	702.25
1132.876241	704.0
1133.433456	701.75
1133.990614	700.5
1134.547714	699.75
1135.104757	701.25
1135.661743	702.5
1136.218671	703.0
1136.775542	704.5
1137.332356	695.75
1137.889112	701.25
1138.445811	698.5
1139.002453	706.5
1139.559037	701.0
1140.115565	703.75
1140.672035	700.75
1141.228447	703.25
1141.784803	699.5
1142.341101	702.0
1142.897342	696.75
1143.453525	703.25
1144.009651	703.25
1144.565721	697.5
1145.121732	700.0
1145.677687	703.25
1146.233584	696.25
1146.789424	702.75
1147.345207	700.75
1147.900933	703.75
1148.456601	699.5
1149.012212	704.25
1149.567766	698.5
1150.123263	703.25
1150.678702	701.5
1151.234085	699.75
1151.78941	699.0
1152.344678	703.25
1152.899888	700.75
1153.455042	701.5
1154.010138	698.5
1154.565177	702.0
1155.120159	703.0
1155.675084	705.0
1156.229951	703.0
1156.784762	701.25
1157.339515	697.5
1157.894211	704.25
1158.44885	701.0
1159.003432	702.5
1159.557956	702.75
1160.112424	696.5
1160.666834	703.0
1161.221187	702.5
1161.775483	699.5
1162.329722	701.75
1162.883904	704.25
1163.438029	700.5
1163.992096	699.25
1164.546107	700.25
1165.10006	701.0
1165.653956	697.75
1166.207795	700.0
1166.761577	697.25
1167.315302	701.25
1167.86897	697.25
1168.422581	699.75
1168.976134	701.0
1169.529631	695.75
1170.08307	698.25
1170.636453	693.75
1171.189778	701.5
1171.743046	699.25
1172.296257	699.75
1172.849412	695.25
1173.402509	697.75
1173.955549	699.25
1174.508532	699.0
1175.061458	696.5
1175.614327	703.0
1176.167138	696.75
1176.719893	695.25
1177.272591	700.5
1177.825232	700.5
1178.377816	696.5
1178.930342	699.25
1179.482812	699.0
1180.035225	697.75
1180.587581	699.75
1181.139879	701.75
1181.692121	697.5
1182.244306	696.75
1182.796434	700.75
1183.348504	695.75
1183.900518	697.5
1184.452475	696.75
1185.004375	699.75
1185.556218	696.75
1186.108004	695.5
1186.659733	694.5
1187.211405	696.75
1187.76302	695.0
1188.314578	693.5
1188.866079	698.75
1189.417523	701.25
1189.96891	693.75
1190.520241	694.75
1191.071514	695.75
1191.622731	697.75
1192.17389	697.5
1192.724993	702.0
1193.276039	720.0
1193.827027	696.5
1194.377959	696.75
1194.928834	699.25
1195.479653	694.0
1196.030414	695.5
1196.581118	696.75
1197.131766	693.5
1197.682356	695.5
1198.23289	693.75
1198.783367	694.75
1199.333786	695.25
1199.88415	692.75
1200.434456	696.75
1200.984705	692.25
1201.534898	698.25
1202.085033	700.25
1202.635112	695.5
1203.185134	698.75
1203.735099	696.5
1204.285007	694.75
1204.834859	697.75
1205.384653	698.75
1205.934391	697.25
1206.484072	694.25
1207.033696	698.25
1207.583263	697.25
1208.132774	695.0
1208.682228	695.5
1209.231624	695.0
1209.780965	692.25
1210.330248	695.75
1210.879474	693.75
1211.428644	694.0
1211.977757	698.75
1212.526813	695.75
1213.075813	701.0
1213.624755	698.75
1214.173641	694.5
1214.72247	694.5
1215.271242	692.0
1215.819958	697.0
1216.368617	700.25
1216.917219	694.75
1217.465764	698.75
1218.014253	691.0
1218.562685	696.25
1219.11106	696.75
1219.659378	696.0
1220.20764	699.5
1220.755845	698.0
1221.303993	695.0
1221.852085	691.0
1222.400119	688.75
1222.948097	694.25
1223.496019	689.0
1224.043883	696.75
1224.591691	696.5
1225.139443	693.0
1225.687137	695.5
1226.234775	696.75
1226.782357	695.75
1227.329881	696.75
1227.877349	695.0
1228.42476	697.5
1228.972115	700.0
1229.519413	699.5
1230.066654	695.25
1230.613839	692.5
1231.160967	694.0
1231.708038	698.25
1232.255053	694.75
1232.802011	697.75
1233.348912	697.75
1233.895757	697.25
1234.442545	695.25
1234.989277	692.5
1235.535951	693.5
1236.08257	690.75
1236.629131	693.75
1237.175636	692.5
1237.722085	694.75
1238.268477	693.5
1238.814812	700.5
1239.361091	699.5
1239.907313	696.25
1240.453478	696.5
1240.999587	692.5
1241.54564	692.0
1242.091636	694.0
1242.637575	696.75
1243.183457	693.0
1243.729284	698.75
1244.275053	695.0
1244.820766	699.0
1245.366423	698.75
1245.912022	699.5
1246.457566	694.25
1247.003053	695.5
1247.548483	696.5
1248.093857	692.75
1248.639174	694.25
1249.184435	694.0
1249.729639	696.0
1250.274787	696.75
1250.819878	698.75
1251.364912	693.5
1251.909891	696.0
1252.454812	694.25
1252.999677	693.75
1253.544486	698.75
1254.089238	698.5
1254.633934	698.0
1255.178573	699.25
1255.723156	694.75
1256.267682	697.5
1256.812152	695.75
1257.356565	692.75
1257.900922	695.25
1258.445223	694.75
1258.989467	692.75
1259.533654	693.0
1260.077785	710.0
1260.62186	694.25
1261.165878	694.0
1261.70984	697.0
1262.253745	693.0
1262.797594	695.25
1263.341386	696.0
1263.885123	697.5
1264.428802	698.0
1264.972425	703.5
1265.515992	710.25
1266.059503	733.0
1266.602957	722.25
1267.146354	703.0
1267.689696	700.25
1268.23298	697.5
1268.776209	696.25
1269.319381	695.75
1269.862497	697.75
1270.405556	695.0
1270.948559	695.25
1271.491506	698.0
1272.034396	696.0
1272.57723	696.75
1273.120007	694.25
1273.662728	696.5
1274.205393	693.0
1274.748002	690.5
1275.290554	695.25
1275.83305	694.75
1276.375489	693.5
1276.917872	693.0
1277.460199	696.75
1278.00247	692.5
1278.544684	694.75
1279.086842	694.5
1279.628943	693.0
1280.170989	695.5
1280.712978	696.25
1281.25491	694.5
1281.796787	697.5
1282.338607	697.75
1282.880371	697.25
1283.422078	698.25
1283.963729	699.25
1284.505324	705.75
1285.046863	715.5
1285.588345	774.0
1286.129772	1010.0
1286.671142	1053.0
1287.212455	801.25
1287.753713	716.5
1288.294914	704.75
1288.836059	703.0
1289.377147	699.25
1289.91818	701.0
1290.459156	701.25
1291.000076	696.0
1291.54094	696.75
1292.081747	697.75
1292.622499	694.25
1293.163194	698.0
1293.703833	695.0
1294.244415	692.0
1294.784942	692.25
1295.325412	692.5
1295.865826	695.0
1296.406184	691.0
1296.946486	696.75
1297.486731	696.25
1298.026921	698.25
1298.567054	695.75
1299.107131	697.75
1299.647152	689.75
1300.187116	694.25
1300.727025	691.75
1301.266877	695.25
1301.806673	695.0
1302.346413	693.0
1302.886097	699.75
1303.425725	694.5
1303.965297	694.25
1304.504812	693.0
1305.044272	695.5
1305.583675	694.25
1306.123022	695.0
1306.662313	692.75
1307.201548	693.25
1307.740727	696.75
1308.279849	693.0
1308.818916	695.0
1309.357926	697.75
1309.896881	695.75
1310.435779	696.5
1310.974621	692.75
1311.513407	694.0
1312.052137	696.75
1312.590811	693.5
1313.129429	694.75
1313.667991	696.75
1314.206497	692.75
1314.744946	695.25
1315.28334	694.0
1315.821678	693.25
1316.359959	691.25
1316.898184	696.5
1317.436354	696.25
1317.974467	694.25
1318.512525	697.5
1319.050526	696.25
1319.588471	694.25
1320.12636	695.75
1320.664194	698.75
1321.201971	699.75
1321.739692	695.0
1322.277357	694.25
1322.814967	693.25
1323.35252	695.25
1323.890017	699.25
1324.427458	698.75
1324.964843	693.75
1325.502173	693.0
1326.039446	692.75
1326.576663	692.75
1327.113824	699.25
1327.65093	695.75
1328.187979	693.5
1328.724972	692.25
1329.26191	694.5
1329.798791	694.75
1330.335617	692.75
1330.872386	696.0
1331.4091	696.75
1331.945758	695.25
1332.48236	692.75
1333.018905	698.0
1333.555395	697.5
1334.091829	695.75
1334.628207	693.5
1335.164529	698.75
1335.700796	694.5
1336.237006	691.0
1336.77316	695.5
1337.309259	698.5
1337.845301	695.75
1338.381288	694.75
1338.917219	694.75
1339.453094	693.5
1339.988913	694.75
1340.524676	691.5
1341.060383	700.5
1341.596034	699.25
1342.13163	694.0
1342.66717	696.75
1343.202653	695.0
1343.738081	694.5
1344.273453	696.5
1344.80877	696.0
1345.34403	697.25
1345.879235	695.5
1346.414383	697.0
1346.949476	694.5
1347.484513	692.5
1348.019494	697.5
1348.55442	694.5
1349.089289	695.75
1349.624103	695.25
1350.158861	694.75
1350.693563	691.0
1351.228209	697.75
1351.7628	698.75
1352.297334	698.0
1352.831813	695.75
1353.366236	695.25
1353.900604	695.75
1354.434915	694.75
1354.969171	694.25
1355.503371	694.75
1356.037515	695.5
1356.571604	694.5
1357.105636	697.0
1357.639613	694.25
1358.173535	695.25
1358.7074	697.5
1359.24121	693.5
1359.774964	695.5
1360.308662	694.5
1360.842304	696.5
1361.375891	694.75
1361.909422	696.75
1362.442897	696.0
1362.976317	692.75
1363.50968	694.5
1364.042989	693.5
1364.576241	694.5
1365.109438	691.75
1365.642579	692.0
1366.175664	695.75
1366.708693	697.25
1367.241667	693.25
1367.774585	697.75
1368.307448	692.75
1368.840255	696.75
1369.373006	697.75
1369.905701	694.5
1370.438341	697.5
1370.970925	708.0
1371.503454	701.5
1372.035926	691.25
1372.568344	699.25
1373.100705	693.75
1373.633011	693.0
1374.165261	695.75
1374.697456	693.0
1375.229595	697.0
1375.761678	697.0
1376.293705	696.0
1376.825677	697.75
1377.357594	700.0
1377.889455	696.5
1378.42126	694.75
1378.953009	692.5
1379.484703	695.0
1380.016342	692.5
1380.547924	699.0
1381.079452	694.25
1381.610923	690.75
1382.142339	696.25
1382.673699	697.75
1383.205004	698.0
1383.736253	696.25
1384.267447	693.0
1384.798585	696.5
1385.329668	696.75
1385.860695	703.25
1386.391666	699.5
1386.922582	703.25
1387.453442	706.0
1387.984247	710.75
1388.514996	744.75
1389.04569	984.75
1389.576328	1439.5
1390.10691	965.0
1390.637437	736.25
1391.167909	710.75
1391.698325	706.5
1392.228685	699.5
1392.75899	702.0
1393.28924	698.0
1393.819434	698.5
1394.349572	697.75
1394.879655	691.75
1395.409683	697.0
1395.939655	692.75
1396.469571	694.75
1396.999432	695.0
1397.529237	693.0
1398.058987	697.0
1398.588682	698.75
1399.118321	695.75
1399.647905	701.5
1400.177433	696.25
1400.706906	696.0
1401.236323	693.5
1401.765685	691.5
1402.294991	696.75
1402.824242	694.25
1403.353437	696.0
1403.882577	700.5
1404.411662	693.75
1404.940691	695.0
1405.469665	697.5
1405.998583	697.0
1406.527446	701.5
1407.056253	693.75
1407.585005	695.5
1408.113702	696.0
1408.642343	697.75
1409.170929	702.0
1409.69946	703.25
1410.227935	721.25
1410.756354	765.75
1411.284719	746.25
1411.813028	710.75
1412.341281	701.75
1412.869479	696.5
1413.397622	695.5
1413.92571	694.0
1414.453742	690.75
1414.981718	693.0
1416.037506	690.0
1416.565316	694.25
1417.093072	695.0
1417.620772	693.0
1418.148416	697.5
1418.676005	695.25
1419.203539	692.75
1419.731018	695.75
1420.258441	698.25
1420.785809	694.0
1421.313122	694.5
1421.840379	694.25
1422.367582	698.0
1422.894728	694.5
1423.42182	695.5
1423.948856	696.25
1424.475837	699.25
1425.002762	693.75
1425.529633	694.25
1426.056448	695.25
1426.583207	693.0
1427.109912	701.5
1427.636561	698.0
1428.163155	692.0
1428.689694	692.5
1429.216177	693.75
1429.742605	694.0
1430.268978	697.5
1430.795296	692.75
1431.321558	700.0
1431.847765	694.5
1432.373917	697.75
1432.900014	695.25
1433.426056	695.75
1433.952042	693.75
1434.477973	692.5
1435.003849	692.75
1435.529669	696.25
1436.055435	692.5
1436.581145	691.5
1437.1068	692.0
1437.632399	693.5
1438.157944	694.25
1438.683433	693.5
1439.208868	699.25
1439.734247	696.0
1440.25957	693.5
1440.784839	690.25
1441.310053	689.5
1441.835211	692.5
1442.360314	693.25
1442.885362	694.5
1443.410355	692.75
1443.935292	692.0
1444.460175	695.5
1444.985002	694.0
1445.509774	689.5
1446.034491	694.75
1446.559153	694.0
1447.08376	693.75
1447.608312	696.5
1448.132808	693.0
1448.65725	693.75
1449.181636	692.5
1449.705967	695.75
1450.230243	697.5
1450.754464	690.75
1451.27863	694.25
1451.802741	694.0
1452.326797	694.75
1452.850797	694.25
1453.374743	694.5
1453.898633	693.75
1454.422468	690.0
1454.946249	696.75
1455.469974	689.5
1455.993644	695.75
1456.517259	691.5
1457.040819	693.25
1457.564324	695.0
1458.087773	691.5
1458.611168	689.25
1459.134508	694.25
1459.657793	695.5
1460.181022	692.0
1460.704197	692.0
1461.227316	693.75
1461.750381	694.25
1462.27339	693.5
1462.796345	693.75
1463.319244	698.75
1463.842089	695.5
1464.364878	696.25
1464.887613	699.0
1465.410292	690.0
1465.932916	695.0
1466.455486	692.0
1466.978	697.0
1467.50046	693.25
1468.022864	693.5
1468.545214	692.75
1469.067508	694.75
1469.589748	695.5
1470.111932	688.75
1470.634062	691.5
1471.156136	695.5
1471.678156	687.75
1472.20012	695.5
1472.72203	694.75
1473.243885	694.25
1473.765685	697.5
1474.28743	696.5
1474.80912	692.5
1475.330755	692.0
1475.852335	694.5
1476.37386	692.0
1476.89533	690.25
1477.416745	693.5
1477.938106	694.0
1478.459411	694.25
1478.980662	693.25
1479.501857	690.5
1480.022998	693.25
1480.544084	689.75
1481.065115	691.25
1481.586091	691.75
1482.107012	691.5
1482.627878	691.75
1483.14869	693.25
1483.669446	691.25
1484.190148	693.0
1484.710794	693.75
1485.231386	690.5
1485.751923	690.25
1486.272406	693.0
1486.792833	695.5
1487.313205	694.25
1487.833523	697.0
1488.353786	690.75
1488.873994	688.0
1489.394147	690.5
1489.914245	686.75
1490.434288	693.25
1490.954277	691.75
1491.474211	694.75
1491.99409	691.5
1492.513914	691.75
1493.033683	690.5
1493.553398	691.0
1494.073057	695.25
1494.592662	691.25
1495.112212	694.25
1495.631708	694.25
1496.151148	695.0
1496.670534	691.0
1497.189865	690.0
1497.709141	692.5
1498.228362	691.25
1498.747529	695.25
1499.266641	690.25
1499.785698	697.5
1500.3047	695.0
1500.823648	693.25
1501.34254	692.0
1501.861379	694.75
1502.380162	691.75
1502.89889	689.75
1503.417564	695.0
1503.936183	692.25
1504.454748	690.75
1504.973257	692.5
1505.491712	695.0
1506.010112	694.5
1506.528458	690.5
1507.046748	694.75
1507.564984	691.0
1508.083166	687.5
1508.601292	690.5
1509.119364	692.5
1509.637381	690.5
1510.155344	690.25
1510.673252	704.75
1511.191105	688.75
1511.708903	692.5
1512.226647	691.0
1512.744336	695.0
1513.261971	691.0
1513.77955	695.75
1514.297076	691.75
1514.814546	695.25
1515.331962	694.75
1515.849323	689.5
1516.366629	695.75
1516.883881	693.75
1517.401078	693.0
1517.918221	696.5
1518.435309	696.0
1518.952342	693.25
1519.469321	689.25
1519.986245	693.0
1520.503114	689.0
1521.019929	694.75
1521.536689	690.0
1522.053395	688.75
1522.570046	690.5
1523.086642	693.25
1523.603184	691.75
1524.119671	695.25
1524.636103	688.25
1525.152481	690.5
1525.668805	690.0
1526.185073	692.5
1526.701288	691.75
1527.217447	692.0
1527.733552	691.25
1528.249603	692.75
1528.765599	695.5
1529.28154	692.75
1529.797427	690.75
1530.313259	692.25
1530.829037	691.5
1531.34476	688.25
1531.860429	693.0
1532.376043	693.5
1532.891602	694.0
1533.407107	694.75
1533.922558	694.5
1534.437954	691.75
1534.953295	691.5
1535.468582	693.75
1535.983815	691.0
1536.498993	693.25
1537.014116	692.75
1537.529185	691.25
1538.044199	693.75
1538.559159	689.0
1539.074064	692.25
1539.588915	692.0
1540.103712	694.0
1540.618454	689.25
1541.133141	693.0
1541.647774	693.5
1542.162353	692.75
1542.676877	690.75
1543.191346	692.5
1543.705761	695.25
1544.220122	690.5
1544.734428	691.5
1545.24868	692.0
1545.762877	692.0
1546.27702	691.5
1546.791109	689.75
1547.305143	691.25
1547.819122	692.0
1548.333047	694.75
1548.846918	694.75
1549.360734	690.0
1549.874496	694.0
1550.388204	688.25
1550.901857	691.5
1551.415455	690.0
1551.929	688.5
1552.442489	693.25
1552.955925	693.5
1553.469306	689.75
1553.982632	694.75
1554.495905	693.5
1555.009123	693.75
1555.522286	691.25
1556.035395	693.0
1556.54845	696.5
1557.06145	697.25
1557.574396	692.0
1558.087288	695.0
1558.600125	690.0
1559.112908	699.25
1559.625637	691.0
1560.138311	693.75
1560.650931	693.5
1561.163497	693.0
1561.676008	694.0
1562.188465	691.0
1562.700867	695.25
1563.213216	693.5
1563.725509	691.75
1564.237749	692.5
1564.749934	694.5
1565.262065	692.5
1565.774142	687.0
1566.286164	689.5
1566.798132	690.75
1567.310046	693.0
1567.821906	698.75
1568.333711	694.0
1568.845462	689.75
1569.357158	693.25
1569.868801	692.75
1570.380389	690.75
1570.891922	693.0
1571.403402	691.5
1571.914827	692.25
1572.426198	694.5
1572.937515	692.5
1573.448777	690.25
1573.959985	688.25
1574.471139	691.25
1574.982239	694.75
1575.493285	693.75
1576.004276	692.5
1576.515213	688.25
1577.026096	694.5
1577.536924	692.75
1578.047698	691.75
1578.558419	692.25
1579.069084	695.25
1579.579696	690.5
1580.090254	694.0
1580.600757	692.5
1581.111206	692.5
1581.621601	691.25
1582.131941	693.25
1582.642228	687.0
1583.15246	693.75
1583.662638	693.75
1584.172762	693.25
1584.682832	691.75
1585.192847	692.75
1585.702809	687.25
1586.212716	691.25
1586.722569	689.75
1587.232368	688.75
1587.742113	692.5
1588.251803	700.0
1589.271022	692.5
1589.78055	691.5
1590.290024	691.75
1590.799444	695.5
1591.30881	693.0
1591.818121	697.25
1592.327379	689.0
