1042.452273	691.0
1043.018714	692.7999878
1043.585098	692.2000122
1044.151424	691.7999878
1044.717692	693.2000122
1045.283903	694.2000122
1045.850056	690.0
1046.416151	692.5999756
1046.982188	692.4000244
1047.548167	691.0
1048.114089	689.4000244
1048.679953	690.4000244
1049.24576	690.2000122
1049.811509	691.5999756
1050.3772	691.2000122
1050.942833	693.7999878
1051.508408	685.5999756
1052.073926	686.2000122
1052.639387	691.7999878
1053.204789	693.2000122
1053.770134	690.7999878
1054.335421	687.0
1054.900651	690.0
1055.465823	690.2000122
1056.030937	690.7999878
1056.595993	689.5999756
1057.160992	690.5999756
1057.725934	687.7999878
1058.290817	688.4000244
1058.855643	687.4000244
1059.420411	689.0
1059.985122	688.0
1060.549775	686.5999756
1061.114371	686.0
1061.678908	684.5999756
1062.243389	685.7999878
1062.807811	688.5999756
1063.372176	687.2000122
1063.936483	689.2000122
1064.500733	687.2000122
1065.064925	686.7999878
1065.62906	689.2000122
1066.193137	688.7999878
1066.757156	690.7999878
1067.321118	688.7999878
1067.885022	687.7999878
1068.448869	689.2000122
1069.012658	688.4000244
1069.57639	683.7999878
1070.140063	694.2000122
1070.70368	689.0
1071.267239	689.2000122
1071.83074	689.0
1072.394184	688.0
1072.95757	687.5999756
1073.520899	686.2000122
1074.08417	691.7999878
1074.647383	685.4000244
1075.21054	687.2000122
1075.773638	687.4000244
1076.336679	687.0
1076.899663	686.5999756
1077.462589	684.0
1078.025457	689.4000244
1078.588268	690.2000122
1079.151022	690.7999878
1079.713718	688.4000244
1080.276356	687.0
1080.838937	686.7999878
1081.401461	687.2000122
1081.963927	688.7999878
1082.526336	690.2000122
1083.088687	689.5999756
1083.650981	686.2000122
1084.213217	689.4000244
1084.775396	690.4000244
1085.337517	693.2000122
1085.899581	689.4000244
1086.461587	691.5999756
1087.023536	691.7999878
1087.585428	689.2000122
1088.147262	689.7999878
1088.709039	691.2000122
1089.270758	692.7999878
1089.83242	693.4000244
1090.394024	692.5999756
1090.955571	696.4000244
1091.517061	690.2000122
1092.078493	689.0
1092.639868	694.0
1093.201185	693.4000244
1093.762445	693.4000244
1094.323648	694.0
1094.884793	690.5999756
1095.445881	693.4000244
1096.006911	695.4000244
1096.567884	691.0
1097.1288	695.5999756
1097.689659	691.7999878
1098.25046	690.4000244
1098.811203	691.5999756
1099.37189	688.7999878
1099.932518	691.7999878
1100.49309	685.7999878
1101.053604	690.5999756
1101.614061	691.2000122
1102.174461	690.7999878
1102.734803	691.7999878
1103.295088	691.5999756
1103.855316	690.5999756
1104.415486	691.7999878
1104.975599	693.4000244
1105.535655	694.4000244
1106.095653	692.2000122
1106.655594	691.0
1107.215478	689.5999756
1107.775305	691.4000244
1108.335074	690.4000244
1108.894786	689.0
1109.45444	692.2000122
1110.014038	694.0
1110.573578	691.0
1111.133061	692.5999756
1111.692486	694.4000244
1112.251854	694.0
1112.811165	690.5999756
1113.370419	692.2000122
1113.929616	689.7999878
1114.488755	689.7999878
1115.047837	690.5999756
1115.606862	688.4000244
1116.16583	690.2000122
1116.72474	694.0
1117.283593	803.2000122
1117.842389	771.0
1118.401128	689.0
1118.959809	687.2000122
1119.518433	691.5999756
1120.077	686.7999878
1120.63551	689.0
1121.193963	690.2000122
1121.752358	685.5999756
1122.310697	689.2000122
1122.868978	687.0
1123.427202	684.7999878
1123.985368	686.0
1124.543478	688.2000122
1125.10153	688.2000122
1125.659526	687.4000244
1126.217464	688.2000122
1126.775345	687.5999756
1127.333168	688.4000244
1127.890935	687.2000122
1128.448644	688.4000244
1129.006297	685.4000244
1129.563892	686.0
1130.12143	686.5999756
1130.678911	691.2000122
1131.236335	686.4000244
1131.793701	686.7999878
1132.351011	688.7999878
1132.908263	691.0
1133.465458	686.0
1134.022597	682.7999878
1134.579678	685.5999756
1135.136702	686.5999756
1135.693669	684.4000244
1136.250578	686.2000122
1136.807431	689.5999756
1137.364227	686.7999878
1137.920965	688.0
1138.477647	687.0
1139.034271	686.0
1139.590839	690.2000122
1140.147349	686.2000122
1140.703802	687.2000122
1141.260198	685.4000244
1141.816537	685.0
1142.37282	689.2000122
1142.929045	686.0
1143.485213	688.4000244
1144.041323	682.2000122
1144.597377	684.0
1145.153374	687.4000244
1145.709314	688.5999756
1146.265197	689.4000244
1146.821023	685.5999756
1147.376792	692.0
1147.932503	688.0
1148.488158	685.7999878
1149.043756	691.0
1149.599297	687.7999878
1150.154781	687.7999878
1150.710207	688.4000244
1151.265577	688.5999756
1151.82089	686.7999878
1152.376146	690.7999878
1152.931345	690.5999756
1153.486487	689.0
1154.041572	689.5999756
1154.5966	687.0
1155.151571	690.4000244
1155.706485	686.4000244
1156.261342	686.7999878
1156.816142	689.5999756
1157.370885	687.4000244
1157.925572	686.2000122
1158.480201	684.5999756
1159.034774	687.0
1159.589289	690.0
1160.143748	688.4000244
1160.698149	685.2000122
1161.252494	687.5999756
1161.806782	689.4000244
1162.361013	688.0
1162.915187	689.5999756
1163.469304	687.7999878
1164.023364	686.5999756
1164.577368	687.2000122
1165.131314	690.5999756
1165.685204	689.7999878
1166.239036	688.5999756
1166.792812	686.2000122
1167.346531	689.4000244
1167.900193	686.2000122
1168.453798	686.0
1169.007347	684.0
1169.560838	690.7999878
1170.114273	687.7999878
1170.66765	685.4000244
1171.220971	689.7999878
1171.774235	687.0
1172.327443	688.0
1172.880593	687.0
1173.433687	688.2000122
1173.986723	687.4000244
1174.539703	688.5999756
1175.092626	685.7999878
1175.645493	684.0
1176.198302	688.7999878
1176.751055	687.0
1177.303751	690.5999756
1177.85639	687.0
1178.408972	689.2000122
1178.961498	693.2000122
1179.513966	688.2000122
1180.066378	686.7999878
1180.618733	686.7999878
1181.171032	691.2000122
1181.723273	690.0
1182.275458	690.4000244
1182.827586	687.7999878
1183.379657	689.2000122
1183.931672	690.7999878
1184.48363	688.7999878
1185.035531	692.7999878
1185.587375	686.0
1186.139162	690.7999878
1186.690893	690.2000122
1187.242567	688.5999756
1187.794184	694.0
1188.345745	690.2000122
1188.897249	690.5999756
1189.448696	688.2000122
1190.000086	687.2000122
1190.55142	688.5999756
1191.102697	692.4000244
1191.653918	691.0
1192.205081	687.5999756
1192.756188	685.7999878
1193.307238	705.5999756
1193.858232	691.7999878
1194.409169	687.5999756
1194.960049	690.5999756
1195.510872	690.0
1196.061639	688.2000122
1196.612349	688.5999756
1197.163003	688.7999878
1197.713599	685.4000244
1198.264139	688.5999756
1198.814623	688.5999756
1199.36505	688.2000122
1199.91542	687.4000244
1200.465734	688.4000244
1201.01599	686.5999756
1201.566191	687.7999878
1202.116334	692.2000122
1202.666421	686.5999756
1203.216452	688.5999756
1203.766425	684.4000244
1204.316343	684.5999756
1204.866203	687.7999878
1205.416007	688.4000244
1205.965754	688.4000244
1206.515445	687.7999878
1207.065079	691.2000122
1207.614657	687.5999756
1208.164177	688.5999756
1208.713642	688.7999878
1209.26305	687.5999756
1209.812401	687.5999756
1210.361695	684.7999878
1210.910933	688.7999878
1211.460115	690.2000122
1212.00924	688.4000244
1212.558308	688.2000122
1213.10732	693.5999756
1213.656275	686.7999878
1214.205174	687.4000244
1214.754016	687.7999878
1215.302801	693.7999878
1215.85153	691.5999756
1216.400203	690.0
1216.948819	689.7999878
1217.497378	690.2000122
1218.045881	688.5999756
1218.594327	689.2000122
1219.142717	686.7999878
1219.691051	694.2000122
1220.239327	691.4000244
1220.787548	689.2000122
1221.335712	690.7999878
1221.883819	688.7999878
1222.43187	692.0
1222.979864	694.7999878
1223.527802	693.5999756
1224.075683	694.2000122
1224.623508	689.7999878
1225.171277	692.7999878
1225.718989	691.7999878
1226.266644	686.4000244
1226.814243	691.2000122
1227.361786	693.7999878
1227.909272	690.7999878
1228.456702	693.5999756
1229.004075	693.2000122
1229.551392	692.7999878
1230.098652	695.2000122
1230.645856	692.2000122
1231.193003	693.4000244
1231.740094	692.4000244
1232.287129	692.2000122
1232.834107	692.4000244
1233.381029	693.0
1233.927894	692.0
1234.474703	692.7999878
1235.021455	695.7999878
1235.568151	692.4000244
1236.114791	691.5999756
1236.661374	693.5999756
1237.207901	692.7999878
1237.754372	692.2000122
1238.300786	693.2000122
1238.847144	693.2000122
1239.393445	692.4000244
1239.93969	696.7999878
1240.485879	691.4000244
1241.032011	692.7999878
1241.578087	695.4000244
1242.124106	694.7999878
1242.67007	695.4000244
1243.215976	699.0
1243.761827	696.5999756
1244.307621	698.4000244
1244.853359	695.2000122
1245.39904	699.0
1245.944665	699.2000122
1246.490234	698.2000122
1247.035746	697.4000244
1247.581203	697.4000244
1248.126602	696.4000244
1248.671946	700.0
1249.217233	700.0
1249.762464	698.7999878
1250.307638	697.7999878
1250.852757	696.4000244
1251.397819	698.7999878
1251.942824	697.4000244
1252.487774	699.2000122
1253.032667	700.7999878
1253.577503	701.2000122
1254.122284	699.4000244
1254.667008	702.0
1255.211676	699.5999756
1255.756288	703.2000122
1256.300843	703.7999878
1256.845342	705.4000244
1257.389785	711.2000122
1257.934172	711.7999878
1258.478502	719.2000122
1259.022776	713.5999756
1259.566994	716.2000122
1260.111156	731.5999756
1260.655261	720.5999756
1261.199311	730.0
1261.743304	741.4000244
1262.28724	747.4000244
1262.831121	755.5999756
1263.374945	757.7999878
1263.918713	758.0
1264.462425	748.5999756
1265.006081	736.4000244
1265.54968	731.0
1266.093223	720.4000244
1266.636711	718.0
1267.180141	721.4000244
1267.723516	715.5999756
1268.266835	718.4000244
1268.810097	719.0
1269.353303	718.5999756
1269.896453	711.2000122
1270.439547	717.5999756
1270.982584	713.4000244
1271.525566	715.5999756
1272.068491	713.2000122
1272.61136	715.0
1273.154173	714.0
1273.69693	714.7999878
1274.239631	717.5999756
1274.782275	717.7999878
1275.324864	719.0
1275.867396	718.7999878
1276.409872	718.5999756
1276.952292	724.5999756
1277.494656	724.0
1278.036964	727.2000122
1278.579215	735.4000244
1279.121411	740.2000122
1279.66355	752.5999756
1280.205634	775.5999756
1280.747661	810.7999878
1281.289632	879.2000122
1281.831547	1041.599976
1282.373406	1351.199951
1282.915209	1786.400024
1283.456955	1914.800049
1283.998646	1611.199951
1284.540281	1193.599976
1285.081859	961.7999878
1285.623381	857.7999878
1286.164848	798.5999756
1286.706258	773.2000122
1287.247612	748.4000244
1287.788911	741.0
1288.330153	736.4000244
1288.871339	732.7999878
1289.412469	720.5999756
1289.953543	726.2000122
1290.494561	721.5999756
1291.035523	717.0
1291.576428	720.5999756
1292.117278	714.5999756
1292.658072	715.0
1293.19881	719.5999756
1293.739492	714.0
1294.280118	713.7999878
1294.820687	716.0
1295.361201	715.0
1295.901659	709.5999756
1296.442061	713.0
1296.982406	708.5999756
1297.522696	710.7999878
1298.06293	705.5999756
1298.603108	713.2000122
1299.143229	710.0
1299.683295	711.5999756
1300.223305	705.7999878
1300.763259	707.0
1301.303157	706.0
1301.842999	705.4000244
1302.382785	707.0
1302.922515	706.4000244
1303.462189	708.0
1304.001807	705.4000244
1304.541369	707.5999756
1305.080875	705.5999756
1305.620326	706.0
1306.15972	703.2000122
1306.699058	700.4000244
1307.238341	702.5999756
1307.777567	702.4000244
1308.316738	697.5999756
1308.855853	701.5999756
1309.394912	697.5999756
1309.933915	700.5999756
1310.472862	705.2000122
1311.011753	703.0
1311.550588	701.2000122
1312.089367	704.4000244
1312.62809	703.4000244
1313.166758	701.2000122
1313.70537	703.5999756
1314.243925	703.4000244
1314.782425	697.2000122
1315.320869	701.5999756
1315.859257	701.7999878
1316.397589	698.7999878
1316.935866	700.4000244
1317.474086	697.2000122
1318.012251	697.0
1318.55036	702.5999756
1319.088413	698.7999878
1319.62641	699.5999756
1320.164351	700.5999756
1320.702236	700.2000122
1321.240066	703.5999756
1321.777839	702.7999878
1322.315557	697.7999878
1322.853219	698.0
1323.390826	705.4000244
1323.928376	700.5999756
1324.465871	697.0
1325.003309	700.0
1325.540692	698.5999756
1326.07802	701.5999756
1326.615291	700.5999756
1327.152506	698.7999878
1327.689666	697.5999756
1328.22677	698.7999878
1328.763818	700.2000122
1329.300811	698.7999878
1329.837747	694.2000122
1330.374628	694.7999878
1330.911453	700.4000244
1331.448222	699.0
1331.984936	698.7999878
1332.521594	700.4000244
1333.058196	701.0
1333.594742	700.2000122
1334.131232	701.7999878
1334.667667	698.4000244
1335.204046	698.4000244
1335.740369	696.4000244
1336.276637	699.7999878
1336.812848	699.0
1337.349004	700.7999878
1337.885105	699.4000244
1338.421149	700.0
1338.957138	696.5999756
1339.493071	702.7999878
1340.028949	702.0
1340.56477	702.5999756
1341.100536	700.4000244
1341.636246	700.2000122
1342.171901	702.5999756
1342.7075	698.5999756
1343.243043	701.5999756
1343.77853	699.0
1344.313962	699.2000122
1344.849338	699.7999878
1345.384659	700.2000122
1345.919923	703.5999756
1346.455133	700.0
1346.990286	700.4000244
1347.525384	697.2000122
1348.060426	699.5999756
1348.595412	697.0
1349.130343	701.4000244
1349.665218	703.0
1350.200037	696.4000244
1350.734801	700.4000244
1351.269509	699.0
1351.804162	702.5999756
1352.338758	702.5999756
1352.8733	699.7999878
1353.407785	704.7999878
1353.942215	700.5999756
1354.476589	700.7999878
1355.010908	705.0
1355.545171	699.0
1356.079379	700.0
1356.61353	704.5999756
1357.147627	703.5999756
1357.681667	701.2000122
1358.215652	699.5999756
1358.749582	708.4000244
1359.283456	700.0
1359.817274	708.7999878
1360.351037	701.7999878
1360.884744	705.2000122
1361.418395	705.0
1361.951991	702.0
1362.485531	704.5999756
1363.019016	710.0
1363.552445	705.2000122
1364.085819	710.2000122
1364.619137	714.7999878
1365.1524	712.0
1365.685607	710.0
1366.218758	707.5999756
1366.751854	713.2000122
1367.284894	708.7999878
1367.817879	710.4000244
1368.350808	712.5999756
1368.883682	715.2000122
1369.4165	732.2000122
1369.949263	754.4000244
1370.48197	744.5999756
1371.014622	720.0
1371.547218	719.0
1372.079758	710.4000244
1372.612244	715.0
1373.144673	715.4000244
1373.677047	713.2000122
1374.209366	715.7999878
1374.741629	716.0
1375.273836	724.0
1375.805989	717.5999756
1376.338085	720.0
1376.870126	723.7999878
1377.402112	721.7999878
1377.934042	723.7999878
1378.465917	721.4000244
1378.997736	721.7999878
1379.5295	726.7999878
1380.061208	734.5999756
1380.592861	733.4000244
1381.124459	740.5999756
1381.656	744.5999756
1382.187487	747.2000122
1382.718918	751.2000122
1383.250294	771.0
1383.781614	786.0
1384.312879	797.7999878
1384.844088	841.5999756
1385.375242	898.7999878
1385.90634	1031.599976
1386.437383	1329.599976
1386.968371	2027.599976
1387.499303	3100.199951
1388.03018	3124.199951
1388.561001	2003.800049
1389.091767	1281.199951
1389.622478	1002.799988
1390.153133	888.7999878
1390.683733	827.5999756
1391.214277	793.5999756
1391.744766	775.0
1392.2752	765.5999756
1392.805578	745.0
1393.335901	746.4000244
1393.866168	731.2000122
1394.396381	735.5999756
1394.926537	728.2000122
1395.456639	736.4000244
1395.986685	729.2000122
1396.516675	725.4000244
1397.046611	723.0
1397.576491	721.4000244
1398.106315	725.7999878
1398.636084	723.0
1399.165798	720.7999878
1399.695457	722.7999878
1400.22506	719.4000244
1400.754608	723.5999756
1401.284101	719.7999878
1401.813538	716.2000122
1402.34292	718.7999878
1402.872247	722.4000244
1403.401518	722.4000244
1403.930734	725.2000122
1404.459895	730.0
1404.989	728.4000244
1405.51805	732.4000244
1406.047045	737.7999878
1406.575984	737.2000122
1407.104869	751.4000244
1407.633697	765.2000122
1408.162471	785.7999878
1408.691189	804.7999878
1409.219852	813.2000122
1409.74846	812.7999878
1410.277013	789.2000122
1410.80551	768.4000244
1411.333952	750.7999878
1411.862339	737.2000122
1412.39067	725.4000244
1412.918946	720.7999878
1413.447167	714.4000244
1413.975333	713.4000244
1414.503444	712.0
1415.031499	712.2000122
1415.559499	715.0
1416.087444	704.4000244
1416.615333	703.7999878
1417.143167	704.5999756
1417.670947	702.2000122
1418.19867	699.5999756
1418.726339	703.4000244
1419.253952	703.4000244
1419.781511	700.4000244
1420.309014	700.0
1420.836461	701.4000244
1421.363854	702.7999878
1421.891191	698.7999878
1422.418474	700.0
1422.945701	698.0
1423.472872	698.2000122
1423.999989	707.0
1424.52705	701.5999756
1425.054057	699.2000122
1425.581008	696.7999878
1426.107904	699.7999878
1426.634745	701.4000244
1427.16153	700.0
1427.688261	699.0
1428.214936	697.5999756
1428.741556	699.0
1429.268121	699.5999756
1429.794631	692.0
1430.321085	698.0
1430.847485	695.4000244
1431.373829	691.2000122
1431.900118	693.4000244
1432.426353	692.4000244
1432.952532	696.2000122
1433.478655	692.2000122
1434.004724	694.5999756
1434.530738	695.2000122
1435.056696	697.4000244
1435.5826	696.5999756
1436.108448	695.0
1436.634241	694.4000244
1437.159979	694.4000244
1437.685662	694.7999878
1438.21129	690.7999878
1438.736863	690.7999878
1439.262381	693.0
1439.787843	693.7999878
1440.313251	694.4000244
1440.838603	693.2000122
1441.3639	692.0
1441.889143	691.4000244
1442.41433	691.4000244
1442.939462	694.4000244
1443.464539	691.7999878
1443.989561	691.4000244
1444.514528	691.7999878
1445.03944	690.7999878
1445.564297	690.0
1446.089099	693.2000122
1446.613846	696.2000122
1447.138537	694.2000122
1447.663174	694.0
1448.187756	693.0
1448.712282	690.5999756
1449.236754	690.7999878
1449.761171	690.7999878
1450.285532	688.0
1450.809839	689.5999756
1451.33409	688.7999878
1451.858287	693.0
1452.382428	690.0
1452.906515	688.4000244
1453.430546	691.5999756
1453.954523	688.4000244
1454.478444	691.5999756
1455.002311	686.5999756
1455.526123	689.4000244
1456.049879	686.2000122
1456.573581	689.4000244
1457.097227	692.2000122
1457.620819	690.5999756
1458.144356	694.0
1458.667837	687.7999878
1459.191264	690.7999878
1459.714636	692.7999878
1460.237952	689.7999878
1460.761214	690.7999878
1461.284421	692.2000122
1461.807573	689.0
1462.33067	691.2000122
1462.853712	689.5999756
1463.376699	696.7999878
1463.899632	688.2000122
1464.422509	692.4000244
1464.945331	686.4000244
1465.468099	692.0
1465.990811	688.0
1466.513469	689.2000122
1467.036071	688.7999878
1467.558619	690.7999878
1468.081112	687.7999878
1468.60355	686.5999756
1469.125933	689.5999756
1469.648261	690.0
1470.170534	693.5999756
1470.692752	688.0
1471.214916	688.7999878
1471.737024	691.5999756
1472.259078	686.0
1472.781077	686.5999756
1473.303021	687.2000122
1473.82491	689.7999878
1474.346744	690.2000122
1474.868523	688.5999756
1475.390248	687.4000244
1475.911917	686.5999756
1476.433532	687.0
1476.955092	689.2000122
1477.476597	688.7999878
1477.998047	683.5999756
1478.519442	687.2000122
1479.040783	689.0
1479.562068	687.5999756
1480.083299	686.0
1480.604475	686.4000244
1481.125596	685.4000244
1481.646663	687.0
1482.167674	689.0
1482.688631	690.5999756
1483.209533	692.2000122
1483.73038	691.0
1484.251172	686.7999878
1484.771909	688.5999756
1485.292592	686.0
1485.81322	684.5999756
1486.333793	689.7999878
1486.854311	685.7999878
1487.374775	685.0
1487.895183	686.2000122
1488.415537	688.4000244
1488.935836	687.4000244
1489.456081	686.4000244
1489.97627	685.7999878
1490.496405	686.7999878
1491.016485	683.7999878
1491.536511	685.0
1492.056481	684.4000244
1492.576397	683.2000122
1493.096258	688.4000244
1493.616064	685.7999878
1494.135816	688.0
1494.655513	685.2000122
1495.175155	685.7999878
1495.694742	684.2000122
1496.214274	686.7999878
1496.733752	688.2000122
1497.253175	687.2000122
1497.772544	687.0
1498.291858	684.0
1498.811116	683.5999756
1499.330321	686.2000122
1499.84947	693.0
1500.368565	686.5999756
1500.887605	684.4000244
1501.406591	685.7999878
1501.925521	686.4000244
1502.444397	685.2000122
1502.963219	681.5999756
1503.481985	684.5999756
1504.000697	686.7999878
1504.519355	685.2000122
1505.037957	688.2000122
1505.556505	686.5999756
1506.074999	688.2000122
1506.593437	682.0
1507.111821	686.5999756
1507.63015	685.2000122
1508.148425	684.4000244
1508.666645	681.4000244
1509.18481	685.2000122
1509.702921	681.7999878
1510.220977	685.2000122
1510.738979	691.4000244
1511.256925	686.2000122
1511.774817	687.2000122
1512.292655	682.4000244
1512.810438	687.4000244
1513.328166	684.5999756
1513.84584	685.5999756
1514.363459	684.2000122
1514.881023	686.2000122
1515.398533	686.7999878
1515.915988	682.7999878
1516.433389	687.2000122
1516.950734	681.4000244
1517.468026	684.4000244
1517.985263	685.5999756
1518.502445	685.5999756
1519.019572	686.4000244
1519.536645	686.5999756
1520.053664	686.7999878
1520.570628	686.0
1521.087537	688.0
1521.604392	684.7999878
1522.121192	684.7999878
1522.637937	686.5999756
1523.154628	684.2000122
1523.671265	687.0
1524.187847	687.5999756
1524.704374	686.0
1525.220847	686.4000244
1525.737265	683.2000122
1526.253629	685.0
1526.769938	691.0
1527.802392	688.5999756
1528.318538	685.5999756
1528.834629	685.0
1529.350666	684.2000122
1529.866648	686.0
1530.382575	685.0
1530.898448	684.2000122
1531.414266	689.0
1531.93003	686.7999878
1532.44574	684.4000244
1532.961395	686.4000244
1533.476995	686.7999878
1533.992541	684.5999756
1534.508033	684.2000122
1535.02347	688.4000244
1535.538852	685.7999878
1536.05418	685.0
1536.569454	684.0
1537.084673	684.4000244
1537.599837	685.0
1538.114947	686.5999756
1538.630003	683.7999878
1539.145004	680.7999878
1539.659951	686.5999756
1540.174843	687.4000244
1540.689681	689.5999756
1541.204465	687.2000122
1541.719194	686.7999878
1542.233868	691.5999756
1542.748488	686.0
1543.263054	684.4000244
1543.777565	685.5999756
1544.292022	682.5999756
1544.806424	688.0
1545.320772	684.4000244
1545.835066	684.4000244
1546.349305	685.0
1546.863489	686.7999878
1547.37762	687.2000122
1547.891696	682.7999878
1548.405717	685.7999878
1548.919684	687.0
1549.433597	688.4000244
1549.947455	685.7999878
1550.461259	686.0
1550.975009	686.0
1551.488704	686.0
1552.002345	683.0
1552.515931	686.0
1553.029463	685.0
1553.542941	685.0
1554.056364	684.4000244
1554.569733	685.4000244
1555.083048	683.7999878
1555.596308	684.4000244
1556.109514	685.0
1556.622665	685.7999878
1557.135762	684.5999756
1557.648805	684.5999756
1558.161794	685.4000244
1558.674728	686.5999756
1559.187608	684.0
1559.700433	686.0
1560.213205	683.5999756
1560.725921	685.5999756
1561.238584	687.2000122
1561.751192	686.7999878
1562.263746	685.7999878
1562.776246	685.7999878
1563.288691	686.0
1563.801082	685.0
1564.313419	686.0
1564.825701	683.4000244
1565.337929	683.5999756
1565.850103	685.2000122
1566.362223	684.7999878
1566.874288	688.2000122
1567.386299	684.2000122
1567.898256	685.0
1568.410158	684.0
1568.922007	685.4000244
1569.4338	685.0
1569.94554	686.2000122
1570.457226	680.2000122
1570.968857	684.4000244
1571.480434	680.4000244
1571.991956	687.4000244
1572.503425	688.5999756
1573.014839	682.7999878
1573.526199	683.0
1574.037505	686.0
1574.548756	684.0
1575.059953	680.2000122
1575.571096	685.0
1576.082185	688.7999878
1576.59322	682.7999878
1577.1042	682.2000122
1577.615126	685.7999878
1578.125998	688.0
1578.636816	687.2000122
1579.14758	684.5999756
1579.658289	685.7999878
1580.168944	684.5999756
1580.679545	685.7999878
1581.190092	687.4000244
1581.700585	683.2000122
1582.211023	684.4000244
1582.721407	685.5999756
1583.231737	686.2000122
1583.742013	683.7999878
1584.252235	683.2000122
1584.762403	684.5999756
1585.272516	683.2000122
1585.782575	685.7999878
1586.292581	683.2000122
1586.802532	683.7999878
1587.312428	687.4000244
1587.822271	686.7999878
1588.33206	685.0
1588.841794	686.5999756
1589.351474	687.2000122
1589.8611	687.0
1590.370672	684.2000122
1590.88019	686.5999756
1591.389654	684.2000122
1591.899064	682.2000122
1592.408419	686.4000244
