1042.452273	723.2000122
1043.018714	722.2000122
1043.585098	720.4000244
1044.151424	723.5999756
1044.717692	716.7999878
1045.283903	717.4000244
1045.850056	721.2000122
1046.416151	717.4000244
1046.982188	716.7999878
1047.548167	713.2000122
1048.114089	711.0
1048.679953	715.2000122
1049.24576	713.0
1049.811509	715.0
1050.3772	716.2000122
1050.942833	713.5999756
1051.508408	711.5999756
1052.073926	711.7999878
1052.639387	710.4000244
1053.204789	711.4000244
1053.770134	711.4000244
1054.335421	709.7999878
1054.900651	714.4000244
1055.465823	712.7999878
1056.030937	711.4000244
1056.595993	711.7999878
1057.160992	711.4000244
1057.725934	706.4000244
1058.290817	710.7999878
1058.855643	709.4000244
1059.420411	709.0
1059.985122	714.5999756
1060.549775	711.0
1061.114371	708.0
1061.678908	712.0
1062.243389	707.4000244
1062.807811	709.2000122
1063.372176	710.4000244
1063.936483	708.4000244
1064.500733	712.5999756
1065.064925	709.4000244
1065.62906	709.2000122
1066.193137	708.7999878
1066.757156	709.0
1067.321118	709.0
1067.885022	710.7999878
1068.448869	707.5999756
1069.012658	710.4000244
1069.57639	712.2000122
1070.140063	714.5999756
1070.70368	711.2000122
1071.267239	708.0
1071.83074	710.7999878
1072.394184	704.5999756
1072.95757	703.5999756
1073.520899	708.2000122
1074.08417	709.4000244
1074.647383	707.7999878
1075.21054	708.0
1075.773638	706.5999756
1076.336679	705.4000244
1076.899663	710.4000244
1077.462589	709.5999756
1078.025457	708.2000122
1078.588268	710.4000244
1079.151022	716.2000122
1079.713718	709.2000122
1080.276356	711.5999756
1080.838937	706.4000244
1081.401461	708.4000244
1081.963927	707.5999756
1082.526336	707.0
1083.088687	710.2000122
1083.650981	709.0
1084.213217	711.4000244
1084.775396	708.4000244
1085.337517	712.7999878
1085.899581	706.0
1086.461587	709.2000122
1087.023536	708.2000122
1087.585428	712.4000244
1088.147262	705.5999756
1088.709039	711.0
1089.270758	715.7999878
1089.83242	707.7999878
1090.394024	712.5999756
1090.955571	706.4000244
1091.517061	710.4000244
1092.078493	706.2000122
1092.639868	709.0
1093.201185	713.7999878
1093.762445	707.0
1094.323648	710.5999756
1094.884793	709.0
1095.445881	704.7999878
1096.006911	707.5999756
1096.567884	707.4000244
1097.1288	719.4000244
1097.689659	709.2000122
1098.25046	710.5999756
1098.811203	709.0
1099.37189	709.4000244
1099.932518	709.2000122
1100.49309	707.7999878
1101.053604	708.7999878
1101.614061	704.0
1102.174461	708.4000244
1102.734803	708.5999756
1103.295088	705.7999878
1103.855316	710.4000244
1104.415486	709.2000122
1104.975599	708.2000122
1105.535655	710.5999756
1106.095653	707.5999756
1106.655594	708.0
1107.215478	708.4000244
1107.775305	706.7999878
1108.335074	707.4000244
1108.894786	711.2000122
1109.45444	705.5999756
1110.014038	708.5999756
1110.573578	709.0
1111.133061	705.4000244
1111.692486	706.4000244
1112.251854	707.2000122
1112.811165	708.0
1113.370419	705.2000122
1113.929616	706.5999756
1114.488755	710.7999878
1115.047837	707.0
1115.606862	707.0
1116.16583	709.5999756
1116.72474	704.4000244
1117.283593	707.0
1117.842389	702.2000122
1118.401128	710.0
1118.959809	707.4000244
1119.518433	705.2000122
1120.077	709.0
1120.63551	709.2000122
1121.193963	710.0
1121.752358	707.4000244
1122.310697	704.4000244
1122.868978	706.4000244
1123.427202	707.7999878
1123.985368	706.2000122
1124.543478	707.7999878
1125.10153	708.0
1125.659526	706.0
1126.217464	708.7999878
1126.775345	706.5999756
1127.333168	707.4000244
1127.890935	707.2000122
1128.448644	706.5999756
1129.006297	706.5999756
1129.563892	705.2000122
1130.12143	707.2000122
1130.678911	704.4000244
1131.236335	706.0
1131.793701	704.5999756
1132.351011	707.7999878
1132.908263	702.7999878
1133.465458	703.7999878
1134.022597	704.4000244
1134.579678	707.7999878
1135.136702	709.2000122
1135.693669	702.5999756
1136.250578	705.7999878
1136.807431	703.7999878
1137.364227	706.4000244
1137.920965	700.2000122
1138.477647	708.0
1139.034271	703.0
1139.590839	707.4000244
1140.147349	703.4000244
1140.703802	704.2000122
1141.260198	702.0
1141.816537	704.2000122
1142.37282	706.7999878
1142.929045	707.2000122
1143.485213	704.5999756
1144.041323	703.4000244
1144.597377	706.4000244
1145.153374	706.7999878
1145.709314	705.5999756
1146.265197	707.7999878
1146.821023	703.4000244
1147.376792	704.0
1147.932503	699.7999878
1148.488158	708.4000244
1149.043756	704.2000122
1149.599297	704.7999878
1150.154781	702.4000244
1150.710207	703.5999756
1151.265577	702.4000244
1151.82089	706.0
1152.376146	700.0
1152.931345	702.4000244
1153.486487	703.5999756
1154.041572	707.0
1154.5966	704.5999756
1155.151571	702.7999878
1155.706485	706.0
1156.261342	698.7999878
1156.816142	703.5999756
1157.370885	702.7999878
1157.925572	705.4000244
1158.480201	702.0
1159.034774	706.4000244
1159.589289	704.7999878
1160.143748	698.2000122
1160.698149	705.0
1161.252494	698.7999878
1161.806782	706.7999878
1162.361013	708.2000122
1162.915187	704.7999878
1163.469304	699.4000244
1164.023364	706.2000122
1164.577368	703.7999878
1165.131314	702.0
1165.685204	705.7999878
1166.239036	704.2000122
1166.792812	700.5999756
1167.346531	707.5999756
1167.900193	702.0
1168.453798	706.7999878
1169.007347	703.7999878
1169.560838	704.0
1170.114273	703.7999878
1170.66765	702.7999878
1171.220971	702.2000122
1171.774235	701.4000244
1172.327443	706.2000122
1172.880593	703.5999756
1173.433687	702.7999878
1173.986723	708.4000244
1174.539703	703.4000244
1175.092626	701.7999878
1175.645493	705.2000122
1176.198302	703.2000122
1176.751055	706.7999878
1177.303751	703.2000122
1177.85639	701.0
1178.408972	703.4000244
1178.961498	705.2000122
1179.513966	705.5999756
1180.066378	703.7999878
1180.618733	703.4000244
1181.171032	702.2000122
1181.723273	700.0
1182.275458	706.0
1182.827586	702.2000122
1183.379657	699.7999878
1183.931672	701.2000122
1184.48363	699.2000122
1185.035531	699.0
1185.587375	704.4000244
1186.139162	702.2000122
1186.690893	700.2000122
1187.242567	699.7999878
1187.794184	700.4000244
1188.345745	700.7999878
1188.897249	702.5999756
1189.448696	701.0
1190.000086	700.5999756
1190.55142	705.0
1191.102697	698.4000244
1191.653918	703.7999878
1192.205081	701.4000244
1192.756188	703.2000122
1193.307238	718.4000244
1193.858232	705.4000244
1194.409169	702.2000122
1194.960049	700.4000244
1195.510872	704.4000244
1196.061639	702.2000122
1196.612349	702.0
1197.163003	701.0
1197.713599	702.5999756
1198.264139	703.4000244
1198.814623	705.4000244
1199.36505	700.5999756
1199.91542	703.4000244
1200.465734	700.7999878
1201.01599	706.4000244
1201.566191	699.0
1202.116334	701.2000122
1202.666421	701.7999878
1203.216452	703.2000122
1203.766425	700.7999878
1204.316343	704.7999878
1204.866203	705.2000122
1205.416007	708.7999878
1205.965754	699.4000244
1206.515445	702.4000244
1207.065079	703.0
1207.614657	697.0
1208.164177	700.5999756
1208.713642	703.0
1209.26305	702.5999756
1209.812401	704.4000244
1210.361695	707.4000244
1210.910933	705.4000244
1211.460115	702.4000244
1212.00924	706.2000122
1212.558308	702.7999878
1213.10732	700.5999756
1213.656275	703.5999756
1214.205174	702.5999756
1214.754016	703.7999878
1215.302801	702.5999756
1215.85153	706.2000122
1216.400203	702.7999878
1216.948819	705.0
1217.497378	703.2000122
1218.045881	702.7999878
1218.594327	706.0
1219.142717	703.5999756
1219.691051	703.7999878
1220.239327	704.2000122
1220.787548	703.4000244
1221.335712	703.0
1221.883819	707.0
1222.43187	704.5999756
1222.979864	705.5999756
1223.527802	699.0
1224.075683	704.2000122
1224.623508	703.4000244
1225.171277	700.4000244
1225.718989	699.4000244
1226.266644	704.0
1226.814243	704.0
1227.361786	704.4000244
1227.909272	702.7999878
1228.456702	707.4000244
1229.004075	704.4000244
1229.551392	701.4000244
1230.098652	701.5999756
1230.645856	704.7999878
1231.193003	703.2000122
1231.740094	704.2000122
1232.287129	705.2000122
1232.834107	702.7999878
1233.381029	704.2000122
1233.927894	703.0
1234.474703	702.2000122
1235.021455	704.2000122
1235.568151	705.4000244
1236.114791	703.4000244
1236.661374	701.7999878
1237.207901	701.5999756
1237.754372	704.0
1238.300786	707.0
1238.847144	704.2000122
1239.393445	704.4000244
1239.93969	703.4000244
1240.485879	705.2000122
1241.032011	703.4000244
1241.578087	706.4000244
1242.124106	702.7999878
1242.67007	702.5999756
1243.215976	707.5999756
1243.761827	702.7999878
1244.307621	702.4000244
1244.853359	703.2000122
1245.39904	703.0
1245.944665	704.4000244
1246.490234	703.7999878
1247.035746	704.4000244
1247.581203	702.5999756
1248.126602	707.4000244
1248.671946	702.7999878
1249.217233	705.4000244
1249.762464	702.5999756
1250.307638	703.2000122
1250.852757	704.0
1251.397819	704.0
1251.942824	704.0
1252.487774	701.0
1253.032667	703.0
1253.577503	703.4000244
1254.122284	704.4000244
1254.667008	700.2000122
1255.211676	702.7999878
1255.756288	706.2000122
1256.300843	702.2000122
1256.845342	702.4000244
1257.389785	703.0
1257.934172	704.7999878
1258.478502	705.5999756
1259.022776	703.7999878
1259.566994	705.5999756
1260.111156	720.0
1260.655261	703.7999878
1261.199311	702.7999878
1261.743304	704.4000244
1262.28724	706.4000244
1262.831121	705.5999756
1263.374945	707.5999756
1263.918713	711.5999756
1264.462425	716.2000122
1265.006081	734.7999878
1265.54968	743.0
1266.093223	739.4000244
1266.636711	719.4000244
1267.180141	713.0
1267.723516	710.4000244
1268.266835	706.4000244
1268.810097	702.5999756
1269.353303	702.2000122
1269.896453	705.4000244
1270.439547	698.7999878
1270.982584	703.7999878
1271.525566	702.7999878
1272.068491	699.0
1272.61136	705.4000244
1273.154173	701.2000122
1273.69693	704.0
1274.239631	703.7999878
1274.782275	703.4000244
1275.324864	704.7999878
1275.867396	703.0
1276.409872	702.7999878
1276.952292	708.4000244
1277.494656	704.4000244
1278.036964	707.2000122
1278.579215	706.5999756
1279.121411	703.7999878
1279.66355	709.2000122
1280.205634	708.0
1280.747661	709.2000122
1281.289632	708.2000122
1281.831547	707.5999756
1282.373406	714.5999756
1282.915209	715.5999756
1283.456955	722.2000122
1283.998646	731.0
1284.540281	775.2000122
1285.081859	918.5999756
1285.623381	1292.599976
1286.164848	1280.199951
1286.706258	874.4000244
1287.247612	752.7999878
1287.788911	725.0
1288.330153	716.5999756
1288.871339	714.0
1289.412469	706.2000122
1289.953543	709.7999878
1290.494561	704.7999878
1291.035523	711.2000122
1291.576428	706.5999756
1292.117278	704.7999878
1292.658072	706.2000122
1293.19881	705.2000122
1293.739492	703.2000122
1294.280118	701.5999756
1294.820687	706.0
1295.361201	705.2000122
1295.901659	705.0
1296.442061	702.7999878
1296.982406	705.2000122
1297.522696	701.7999878
1298.06293	700.7999878
1298.603108	702.0
1299.143229	705.2000122
1299.683295	706.7999878
1300.223305	703.7999878
1300.763259	702.4000244
1301.303157	702.4000244
1301.842999	704.0
1302.382785	704.4000244
1302.922515	705.5999756
1303.462189	702.4000244
1304.001807	702.4000244
1304.541369	704.0
1305.080875	706.5999756
1305.620326	705.2000122
1306.15972	702.7999878
1306.699058	703.4000244
1307.238341	700.4000244
1307.777567	702.7999878
1308.316738	703.5999756
1308.855853	704.4000244
1309.394912	701.2000122
1309.933915	704.0
1310.472862	702.4000244
1311.011753	700.7999878
1311.550588	701.2000122
1312.089367	703.7999878
1312.62809	701.7999878
1313.166758	702.4000244
1313.70537	702.2000122
1314.243925	700.5999756
1314.782425	700.0
1315.320869	703.0
1315.859257	700.7999878
1316.397589	706.4000244
1316.935866	701.0
1317.474086	702.7999878
1318.012251	698.0
1318.55036	703.0
1319.088413	702.0
1319.62641	697.0
1320.164351	702.7999878
1320.702236	699.7999878
1321.240066	705.5999756
1321.777839	700.2000122
1322.315557	701.0
1322.853219	701.4000244
1323.390826	696.7999878
1323.928376	705.5999756
1324.465871	701.2000122
1325.003309	702.2000122
1325.540692	701.4000244
1326.07802	702.4000244
1326.615291	702.0
1327.152506	699.5999756
1327.689666	705.7999878
1328.22677	704.5999756
1328.763818	701.4000244
1329.300811	703.7999878
1329.837747	705.4000244
1330.374628	700.7999878
1330.911453	702.5999756
1331.448222	697.0
1331.984936	698.5999756
1332.521594	701.0
1333.058196	703.2000122
1333.594742	704.7999878
1334.131232	701.5999756
1334.667667	700.0
1335.204046	705.5999756
1335.740369	701.2000122
1336.276637	701.5999756
1336.812848	700.2000122
1337.349004	700.7999878
1337.885105	702.4000244
1338.421149	704.7999878
1338.957138	698.5999756
1339.493071	701.4000244
1340.028949	704.5999756
1340.56477	702.2000122
1341.100536	701.4000244
1341.636246	700.4000244
1342.171901	699.5999756
1342.7075	704.0
1343.243043	704.7999878
1343.77853	704.0
1344.313962	699.2000122
1344.849338	704.0
1345.384659	702.4000244
1345.919923	704.5999756
1346.455133	699.5999756
1346.990286	702.0
1347.525384	701.4000244
1348.060426	697.7999878
1348.595412	701.2000122
1349.130343	696.7999878
1349.665218	700.2000122
1350.200037	701.2000122
1350.734801	702.2000122
1351.269509	702.4000244
1351.804162	703.7999878
1352.338758	698.4000244
1352.8733	702.0
1353.407785	700.5999756
1353.942215	699.7999878
1354.476589	703.4000244
1355.010908	702.2000122
1355.545171	706.4000244
1356.079379	701.7999878
1356.61353	702.5999756
1357.147627	702.2000122
1357.681667	702.4000244
1358.215652	702.4000244
1358.749582	704.0
1359.283456	702.4000244
1359.817274	704.7999878
1360.351037	701.4000244
1360.884744	702.0
1361.418395	702.2000122
1361.951991	702.0
1362.485531	702.4000244
1363.019016	701.0
1363.552445	705.2000122
1364.085819	707.4000244
1364.619137	701.0
1365.1524	707.2000122
1365.685607	703.7999878
1366.218758	703.7999878
1366.751854	705.7999878
1367.284894	702.4000244
1367.817879	704.2000122
1368.350808	703.4000244
1368.883682	704.2000122
1369.4165	704.5999756
1369.949263	705.5999756
1370.48197	709.5999756
1371.014622	722.2000122
1371.547218	711.4000244
1372.079758	705.7999878
1372.612244	701.0
1373.144673	705.4000244
1373.677047	703.5999756
1374.209366	700.7999878
1374.741629	705.2000122
1375.273836	706.7999878
1375.805989	702.0
1376.338085	705.0
1376.870126	704.5999756
1377.402112	705.7999878
1377.934042	703.5999756
1378.465917	707.0
1378.997736	702.0
1379.5295	704.7999878
1380.061208	706.2000122
1380.592861	708.4000244
1381.124459	708.5999756
1381.656	705.5999756
1382.187487	704.5999756
1382.718918	700.7999878
1383.250294	705.4000244
1383.781614	708.4000244
1384.312879	703.7999878
1384.844088	711.0
1385.375242	712.2000122
1385.90634	715.4000244
1386.437383	721.7999878
1386.968371	734.0
1387.499303	752.4000244
1388.03018	823.0
1388.561001	1173.599976
1389.091767	1949.800049
1389.622478	1370.800049
1390.153133	838.5999756
1390.683733	751.5999756
1391.214277	719.5999756
1391.744766	717.4000244
1392.2752	713.2000122
1392.805578	711.2000122
1393.335901	711.7999878
1393.866168	709.7999878
1394.396381	706.5999756
1394.926537	704.2000122
1395.456639	701.5999756
1395.986685	708.2000122
1396.516675	707.2000122
1397.046611	704.5999756
1397.576491	704.4000244
1398.106315	706.5999756
1398.636084	705.7999878
1399.165798	707.4000244
1399.695457	699.5999756
1400.22506	704.2000122
1400.754608	706.5999756
1401.284101	705.0
1401.813538	706.7999878
1402.34292	704.2000122
1402.872247	703.4000244
1403.401518	704.0
1403.930734	706.2000122
1404.459895	701.2000122
1404.989	702.2000122
1405.51805	704.4000244
1406.047045	704.2000122
1406.575984	743.7999878
1407.633697	880.5999756
1408.162471	1227.400024
1408.691189	830.7999878
1410.277013	783.5999756
1410.80551	779.2000122
1411.333952	736.4000244
1411.862339	716.4000244
1412.39067	710.0
1412.918946	706.4000244
1413.447167	706.2000122
1413.975333	702.7999878
1414.503444	703.7999878
1415.031499	705.4000244
1415.559499	716.5999756
1416.087444	701.5999756
1416.615333	702.2000122
1417.143167	707.5999756
1417.670947	704.4000244
1418.19867	703.4000244
1418.726339	704.0
1419.253952	704.4000244
1419.781511	704.5999756
1420.309014	701.5999756
1420.836461	700.0
1421.363854	703.5999756
1421.891191	701.0
1422.418474	703.0
1422.945701	705.7999878
1423.472872	699.5999756
1423.999989	707.4000244
1424.52705	704.0
1425.054057	705.5999756
1425.581008	704.4000244
1426.107904	710.7999878
1426.634745	704.4000244
1427.16153	703.4000244
1427.688261	701.4000244
1428.214936	704.2000122
1428.741556	698.2000122
1429.268121	703.7999878
1429.794631	701.0
1430.321085	704.7999878
1430.847485	703.2000122
1431.373829	700.0
1431.900118	703.2000122
1432.426353	699.7999878
1432.952532	704.0
1433.478655	698.2000122
1434.004724	704.7999878
1434.530738	702.7999878
1435.056696	703.2000122
1435.5826	701.5999756
1436.108448	697.5999756
1436.634241	701.5999756
1437.159979	701.5999756
1437.685662	705.7999878
1438.21129	701.0
1438.736863	703.5999756
1439.262381	701.0
1439.787843	697.4000244
1440.313251	702.4000244
1440.838603	701.0
1441.3639	704.4000244
1441.889143	699.7999878
1442.41433	697.2000122
1442.939462	703.4000244
1443.464539	704.4000244
1443.989561	700.0
1444.514528	703.2000122
1445.03944	700.7999878
1445.564297	704.4000244
1446.089099	699.4000244
1446.613846	703.2000122
1447.138537	702.4000244
1447.663174	700.0
1448.187756	700.4000244
1448.712282	703.2000122
1449.236754	698.2000122
1449.761171	701.2000122
1450.285532	700.4000244
1450.809839	700.4000244
1451.33409	703.2000122
1451.858287	700.4000244
1452.382428	700.5999756
1452.906515	700.4000244
1453.430546	701.4000244
1453.954523	698.2000122
1454.478444	699.5999756
1455.002311	703.4000244
1455.526123	701.4000244
1456.049879	699.2000122
1456.573581	696.4000244
1457.097227	703.5999756
1457.620819	701.7999878
1458.144356	701.0
1458.667837	702.5999756
1459.191264	701.4000244
1459.714636	704.7999878
1460.237952	704.7999878
1460.761214	702.7999878
1461.284421	698.2000122
1461.807573	700.4000244
1462.33067	702.4000244
1462.853712	704.4000244
1463.376699	706.2000122
1463.899632	698.0
1464.422509	699.5999756
1464.945331	700.2000122
1465.468099	703.4000244
1465.990811	697.2000122
1466.513469	698.7999878
1467.036071	699.0
1467.558619	700.5999756
1468.081112	699.7999878
1468.60355	700.5999756
1469.125933	704.5999756
1469.648261	703.0
1470.170534	699.4000244
1470.692752	700.7999878
1471.214916	701.0
1471.737024	700.7999878
1472.259078	699.5999756
1472.781077	699.4000244
1473.303021	699.4000244
1473.82491	701.7999878
1474.346744	700.7999878
1474.868523	699.7999878
1475.390248	701.0
1475.911917	700.5999756
1476.433532	700.2000122
1476.955092	700.5999756
1477.476597	700.2000122
1477.998047	697.0
1478.519442	697.0
1479.040783	698.0
1479.562068	701.7999878
1480.083299	699.4000244
1480.604475	700.5999756
1481.125596	700.4000244
1481.646663	706.4000244
1482.167674	696.2000122
1482.688631	702.4000244
1483.209533	700.4000244
1483.73038	695.0
1484.251172	697.7999878
1484.771909	700.4000244
1485.292592	703.2000122
1485.81322	701.0
1486.333793	699.2000122
1486.854311	698.5999756
1487.374775	698.7999878
1487.895183	701.0
1488.415537	702.0
1488.935836	693.5999756
1489.456081	700.0
1489.97627	702.2000122
1490.496405	705.4000244
1491.016485	701.0
1491.536511	702.0
1492.056481	699.2000122
1492.576397	703.7999878
1493.096258	701.2000122
1493.616064	698.5999756
1494.135816	697.7999878
1494.655513	698.5999756
1495.175155	698.5999756
1495.694742	701.2000122
1496.214274	698.0
1496.733752	699.0
1497.253175	699.5999756
1497.772544	701.5999756
1498.291858	701.0
1498.811116	696.5999756
1499.330321	697.5999756
1499.84947	706.2000122
1500.368565	700.0
1500.887605	700.4000244
1501.406591	702.7999878
1501.925521	699.0
1502.444397	702.0
1502.963219	696.4000244
1503.481985	700.0
1504.000697	702.7999878
1504.519355	701.7999878
1505.556505	709.4000244
1506.074999	702.4000244
1506.593437	703.2000122
1507.111821	698.4000244
1507.63015	701.4000244
1508.148425	698.7999878
1508.666645	699.0
1509.18481	702.0
1509.702921	700.4000244
1510.220977	699.2000122
1510.738979	706.4000244
1511.256925	700.5999756
1511.774817	700.5999756
1512.292655	697.2000122
1512.810438	697.0
1513.328166	701.5999756
1513.84584	702.5999756
1514.363459	704.0
1514.881023	698.7999878
1515.398533	701.0
1515.915988	698.2000122
1516.433389	698.5999756
1516.950734	698.4000244
1517.468026	701.5999756
1517.985263	698.2000122
1518.502445	698.5999756
1519.019572	698.4000244
1519.536645	700.5999756
1520.053664	701.2000122
1520.570628	700.5999756
1521.087537	697.5999756
1521.604392	701.5999756
1522.121192	701.2000122
1522.637937	703.0
1523.154628	701.2000122
1523.671265	698.7999878
1524.187847	697.4000244
1524.704374	699.5999756
1525.220847	696.5999756
1525.737265	702.0
1526.253629	701.5999756
1526.769938	703.4000244
1527.286192	697.2000122
1527.802392	702.0
1528.318538	700.0
1528.834629	696.2000122
1529.350666	704.2000122
1529.866648	699.2000122
1530.382575	699.5999756
1530.898448	699.0
1531.414266	701.0
1531.93003	699.5999756
1532.44574	701.7999878
1532.961395	696.5999756
1533.476995	701.2000122
1533.992541	702.7999878
1534.508033	699.4000244
1535.02347	697.7999878
1535.538852	702.2000122
1536.05418	701.4000244
1536.569454	699.0
1537.084673	699.5999756
1537.599837	697.7999878
1538.114947	697.4000244
1538.630003	700.4000244
1539.145004	700.7999878
1539.659951	698.7999878
1540.174843	698.0
1540.689681	700.0
1541.204465	699.4000244
1541.719194	702.4000244
1542.233868	700.7999878
1542.748488	701.5999756
1543.263054	700.5999756
1543.777565	700.7999878
1544.292022	696.0
1544.806424	699.4000244
1545.320772	699.7999878
1545.835066	696.4000244
1546.349305	700.4000244
1546.863489	697.2000122
1547.37762	703.4000244
1547.891696	701.4000244
1548.405717	699.5999756
1548.919684	698.7999878
1549.433597	697.5999756
1549.947455	700.7999878
1550.461259	702.2000122
1550.975009	702.4000244
1551.488704	699.2000122
1552.002345	699.2000122
1552.515931	698.7999878
1553.029463	698.4000244
1553.542941	699.7999878
1554.056364	701.2000122
1554.569733	700.5999756
1555.083048	698.5999756
1555.596308	702.4000244
1556.109514	702.5999756
1556.622665	698.2000122
1557.135762	701.5999756
1557.648805	699.7999878
1558.161794	697.0
1558.674728	703.2000122
1559.187608	696.5999756
1559.700433	700.0
1560.213205	697.5999756
1560.725921	698.4000244
1561.238584	702.0
1561.751192	697.2000122
1562.263746	697.0
1562.776246	705.4000244
1563.288691	697.7999878
1563.801082	699.0
1564.313419	700.5999756
1564.825701	700.7999878
1565.337929	697.7999878
1565.850103	699.2000122
1566.362223	700.7999878
1566.874288	698.7999878
1567.386299	700.4000244
1567.898256	701.0
1568.410158	701.0
1568.922007	702.2000122
1569.4338	701.4000244
1569.94554	699.2000122
1570.457226	697.4000244
1570.968857	701.0
1571.480434	701.0
1571.991956	701.0
1572.503425	697.7999878
1573.014839	698.4000244
1573.526199	702.7999878
1574.037505	698.7999878
1574.548756	700.7999878
1575.059953	701.5999756
1575.571096	697.2000122
1576.082185	704.7999878
1576.59322	698.5999756
1577.1042	702.4000244
1577.615126	699.2000122
1578.125998	700.5999756
1578.636816	703.4000244
1579.14758	700.7999878
1579.658289	701.7999878
1580.168944	702.0
1580.679545	698.7999878
1581.190092	699.2000122
1581.700585	702.0
1582.211023	697.2000122
1582.721407	702.2000122
1583.231737	702.7999878
1583.742013	704.4000244
1584.252235	700.4000244
1584.762403	699.2000122
1585.272516	700.5999756
1585.782575	695.2000122
1586.292581	697.4000244
1586.802532	701.2000122
1587.312428	698.7999878
1587.822271	699.0
1588.33206	699.4000244
1588.841794	702.4000244
1589.351474	699.2000122
1589.8611	703.4000244
1590.370672	700.7999878
1590.88019	696.7999878
1591.389654	697.0
1591.899064	701.4000244
1592.408419	698.5999756
