 1.042452273E+03	 1.154559961E+04
 1.043018714E+03	 1.159179980E+04
 1.043585098E+03	 1.160440039E+04
 1.044151424E+03	 1.167579980E+04
 1.044717692E+03	 1.159400000E+04
 1.045283903E+03	 1.162140039E+04
 1.045850056E+03	 1.162600000E+04
 1.046416151E+03	 1.158400000E+04
 1.046982188E+03	 1.157640039E+04
 1.047548167E+03	 1.153859961E+04
 1.048114089E+03	 1.156020020E+04
 1.048679953E+03	 1.160379980E+04
 1.049245760E+03	 1.157279980E+04
 1.049811509E+03	 1.161140039E+04
 1.050377200E+03	 1.145779980E+04
 1.050942833E+03	 1.156379980E+04
 1.051508408E+03	 1.153079980E+04
 1.052073926E+03	 1.153200000E+04
 1.052639387E+03	 1.150759961E+04
 1.053204789E+03	 1.150300000E+04
 1.053770134E+03	 1.150320020E+04
 1.054335421E+03	 1.147120020E+04
 1.054900651E+03	 1.153200000E+04
 1.055465823E+03	 1.142140039E+04
 1.056030937E+03	 1.150479980E+04
 1.056595993E+03	 1.151120020E+04
 1.057160992E+03	 1.144179980E+04
 1.057725934E+03	 1.148120020E+04
 1.058290817E+03	 1.144259961E+04
 1.058855643E+03	 1.142440039E+04
 1.059420411E+03	 1.143300000E+04
 1.059985122E+03	 1.136279980E+04
 1.060549775E+03	 1.137879980E+04
 1.061114371E+03	 1.146379980E+04
 1.061678908E+03	 1.148040039E+04
 1.062243389E+03	 1.136500000E+04
 1.062807811E+03	 1.143020020E+04
 1.063372176E+03	 1.139059961E+04
 1.063936483E+03	 1.142479980E+04
 1.064500733E+03	 1.134020020E+04
 1.065064925E+03	 1.131420020E+04
 1.065629060E+03	 1.130579980E+04
 1.066193137E+03	 1.139800000E+04
 1.066757156E+03	 1.137159961E+04
 1.067321118E+03	 1.135740039E+04
 1.067885022E+03	 1.133600000E+04
 1.068448869E+03	 1.136159961E+04
 1.069012658E+03	 1.126100000E+04
 1.069576390E+03	 1.132000000E+04
 1.070140063E+03	 1.129520020E+04
 1.070703680E+03	 1.129879980E+04
 1.071267239E+03	 1.122020020E+04
 1.071830740E+03	 1.131800000E+04
 1.072394184E+03	 1.119500000E+04
 1.072957570E+03	 1.128740039E+04
 1.073520899E+03	 1.120359961E+04
 1.074084170E+03	 1.129179980E+04
 1.074647383E+03	 1.121440039E+04
 1.075210540E+03	 1.129000000E+04
 1.075773638E+03	 1.110740039E+04
 1.076336679E+03	 1.127179980E+04
 1.076899663E+03	 1.113379980E+04
 1.077462589E+03	 1.123659961E+04
 1.078025457E+03	 1.118840039E+04
 1.078588268E+03	 1.121679980E+04
 1.079151022E+03	 1.115040039E+04
 1.079713718E+03	 1.111179980E+04
 1.080276356E+03	 1.110900000E+04
 1.080838937E+03	 1.113200000E+04
 1.081401461E+03	 1.107020020E+04
 1.081963927E+03	 1.116479980E+04
 1.082526336E+03	 1.110159961E+04
 1.083088687E+03	 1.111520020E+04
 1.083650981E+03	 1.101500000E+04
 1.084213217E+03	 1.107579980E+04
 1.084775396E+03	 1.100720020E+04
 1.085337517E+03	 1.110659961E+04
 1.085899581E+03	 1.097179980E+04
 1.086461587E+03	 1.103159961E+04
 1.087023536E+03	 1.093159961E+04
 1.087585428E+03	 1.107500000E+04
 1.088147262E+03	 1.093300000E+04
 1.088709039E+03	 1.095959961E+04
 1.089270758E+03	 1.092359961E+04
 1.089832420E+03	 1.097340039E+04
 1.090394024E+03	 1.089159961E+04
 1.090955571E+03	 1.095100000E+04
 1.091517061E+03	 1.084179980E+04
 1.092078493E+03	 1.099120020E+04
 1.092639868E+03	 1.078159961E+04
 1.093201185E+03	 1.098900000E+04
 1.093762445E+03	 1.077479980E+04
 1.094323648E+03	 1.088979980E+04
 1.094884793E+03	 1.082340039E+04
 1.095445881E+03	 1.086559961E+04
 1.096006911E+03	 1.073779980E+04
 1.096567884E+03	 1.085100000E+04
 1.097128800E+03	 1.076900000E+04
 1.097689659E+03	 1.083259961E+04
 1.098250460E+03	 1.072740039E+04
 1.098811203E+03	 1.082779980E+04
 1.099371890E+03	 1.071559961E+04
 1.099932518E+03	 1.081659961E+04
 1.100493090E+03	 1.067200000E+04
 1.101053604E+03	 1.075979980E+04
 1.101614061E+03	 1.063900000E+04
 1.102174461E+03	 1.071379980E+04
 1.102734803E+03	 1.057279980E+04
 1.103295088E+03	 1.072320020E+04
 1.103855316E+03	 1.062840039E+04
 1.104415486E+03	 1.071859961E+04
 1.104975599E+03	 1.058959961E+04
 1.105535655E+03	 1.064600000E+04
 1.106095653E+03	 1.057120020E+04
 1.106655594E+03	 1.062040039E+04
 1.107215478E+03	 1.048579980E+04
 1.107775305E+03	 1.059259961E+04
 1.108335074E+03	 1.055079980E+04
 1.108894786E+03	 1.060020020E+04
 1.109454440E+03	 1.044900000E+04
 1.110014038E+03	 1.058859961E+04
 1.110573578E+03	 1.042540039E+04
 1.111133061E+03	 1.058179980E+04
 1.111692486E+03	 1.040940039E+04
 1.112251854E+03	 1.057159961E+04
 1.112811165E+03	 1.038159961E+04
 1.113370419E+03	 1.053400000E+04
 1.113929616E+03	 1.038640039E+04
 1.114488755E+03	 1.050159961E+04
 1.115047837E+03	 1.042459961E+04
 1.115606862E+03	 1.048340039E+04
 1.116165830E+03	 1.042640039E+04
 1.116724740E+03	 1.047079980E+04
 1.117283593E+03	 1.039920020E+04
 1.117842389E+03	 1.043559961E+04
 1.118401128E+03	 1.041159961E+04
 1.118959809E+03	 1.047020020E+04
 1.119518433E+03	 1.030920020E+04
 1.120077000E+03	 1.043540039E+04
 1.120635510E+03	 1.031640039E+04
 1.121193963E+03	 1.039140039E+04
 1.121752358E+03	 1.034300000E+04
 1.122310697E+03	 1.035759961E+04
 1.122868978E+03	 1.028040039E+04
 1.123427202E+03	 1.040279980E+04
 1.123985368E+03	 1.029920020E+04
 1.124543478E+03	 1.036420020E+04
 1.125101530E+03	 1.025559961E+04
 1.125659526E+03	 1.033420020E+04
 1.126217464E+03	 1.027059961E+04
 1.126775345E+03	 1.033059961E+04
 1.127333168E+03	 1.030359961E+04
 1.127890935E+03	 1.029959961E+04
 1.128448644E+03	 1.026620020E+04
 1.129006297E+03	 1.035279980E+04
 1.129563892E+03	 1.026859961E+04
 1.130121430E+03	 1.028779980E+04
 1.130678911E+03	 1.027400000E+04
 1.131236335E+03	 1.024040039E+04
 1.131793701E+03	 1.027620020E+04
 1.132351011E+03	 1.028159961E+04
 1.132908263E+03	 1.025259961E+04
 1.133465458E+03	 1.023420020E+04
 1.134022597E+03	 1.024959961E+04
 1.134579678E+03	 1.021459961E+04
 1.135136702E+03	 1.028879980E+04
 1.135693669E+03	 1.023359961E+04
 1.136250578E+03	 1.026800000E+04
 1.136807431E+03	 1.024859961E+04
 1.137364227E+03	 1.028259961E+04
 1.137920965E+03	 1.026059961E+04
 1.138477647E+03	 1.025159961E+04
 1.139034271E+03	 1.018220020E+04
 1.139590839E+03	 1.023979980E+04
 1.140147349E+03	 1.022920020E+04
 1.140703802E+03	 1.022720020E+04
 1.141260198E+03	 1.017179980E+04
 1.141816537E+03	 1.027400000E+04
 1.142372820E+03	 1.015979980E+04
 1.142929045E+03	 1.024820020E+04
 1.143485213E+03	 1.014259961E+04
 1.144041323E+03	 1.018320020E+04
 1.144597377E+03	 1.014020020E+04
 1.145153374E+03	 1.014620020E+04
 1.145709314E+03	 1.017359961E+04
 1.146265197E+03	 1.020140039E+04
 1.146821023E+03	 1.015879980E+04
 1.147376792E+03	 1.020579980E+04
 1.147932503E+03	 1.012559961E+04
 1.148488158E+03	 1.020859961E+04
 1.149043756E+03	 1.017320020E+04
 1.149599297E+03	 1.022120020E+04
 1.150154781E+03	 1.016400000E+04
 1.150710207E+03	 1.021420020E+04
 1.151265577E+03	 1.012359961E+04
 1.151820890E+03	 1.020000000E+04
 1.152376146E+03	 1.018379980E+04
 1.152931345E+03	 1.019159961E+04
 1.153486487E+03	 1.018020020E+04
 1.154041572E+03	 1.014859961E+04
 1.154596600E+03	 1.013500000E+04
 1.155151571E+03	 1.012600000E+04
 1.155706485E+03	 1.011379980E+04
 1.156261342E+03	 1.016159961E+04
 1.156816142E+03	 1.013840039E+04
 1.157370885E+03	 1.017279980E+04
 1.157925572E+03	 1.006120020E+04
 1.158480201E+03	 1.021659961E+04
 1.159034774E+03	 1.006759961E+04
 1.159589289E+03	 1.014120020E+04
 1.160143748E+03	 1.003620020E+04
 1.160698149E+03	 1.015159961E+04
 1.161252494E+03	 1.005840039E+04
 1.161806782E+03	 1.016900000E+04
 1.162361013E+03	 1.006479980E+04
 1.162915187E+03	 1.010379980E+04
 1.163469304E+03	 1.009140039E+04
 1.164023364E+03	 1.011740039E+04
 1.164577368E+03	 1.005000000E+04
 1.165131314E+03	 1.009440039E+04
 1.165685204E+03	 1.000800000E+04
 1.166239036E+03	 1.011140039E+04
 1.166792812E+03	 1.005800000E+04
 1.167346531E+03	 1.013200000E+04
 1.167900193E+03	 1.003100000E+04
 1.168453798E+03	 1.004920020E+04
 1.169007347E+03	 1.000359961E+04
 1.169560838E+03	 1.010240039E+04
 1.170114273E+03	 1.002420020E+04
 1.170667650E+03	 1.001700000E+04
 1.171220971E+03	 1.000520020E+04
 1.171774235E+03	 1.006220020E+04
 1.172327443E+03	 9.994799805E+03
 1.172880593E+03	 1.009600000E+04
 1.173433687E+03	 1.000759961E+04
 1.173986723E+03	 1.000479980E+04
 1.174539703E+03	 1.000379980E+04
 1.175092626E+03	 1.002759961E+04
 1.175645493E+03	 9.967400391E+03
 1.176198302E+03	 9.982599609E+03
 1.176751055E+03	 9.960000000E+03
 1.177303751E+03	 9.966200195E+03
 1.177856390E+03	 9.972400391E+03
 1.178408972E+03	 9.964000000E+03
 1.178961498E+03	 9.985200195E+03
 1.179513966E+03	 9.865799805E+03
 1.180066378E+03	 9.920400391E+03
 1.180618733E+03	 9.897200195E+03
 1.181171032E+03	 9.940000000E+03
 1.181723273E+03	 9.936599609E+03
 1.182275458E+03	 9.917200195E+03
 1.182827586E+03	 9.887200195E+03
 1.183379657E+03	 9.962400391E+03
 1.183931672E+03	 9.910000000E+03
 1.184483630E+03	 9.905599609E+03
 1.185035531E+03	 9.889000000E+03
 1.185587375E+03	 9.891200195E+03
 1.186139162E+03	 9.888400391E+03
 1.186690893E+03	 9.868799805E+03
 1.187242567E+03	 9.864799805E+03
 1.187794184E+03	 9.871400391E+03
 1.188345745E+03	 9.878200195E+03
 1.188897249E+03	 9.844799805E+03
 1.189448696E+03	 9.816799805E+03
 1.190000086E+03	 9.897599609E+03
 1.190551420E+03	 9.815400391E+03
 1.191102697E+03	 9.848599609E+03
 1.191653918E+03	 9.792000000E+03
 1.192205081E+03	 9.820000000E+03
 1.192756188E+03	 9.789000000E+03
 1.193307238E+03	 9.787000000E+03
 1.193858232E+03	 9.808000000E+03
 1.194409169E+03	 9.855599609E+03
 1.194960049E+03	 9.866799805E+03
 1.195510872E+03	 9.788599609E+03
 1.196061639E+03	 9.735400391E+03
 1.196612349E+03	 9.756000000E+03
 1.197163003E+03	 9.768000000E+03
 1.197713599E+03	 9.789200195E+03
 1.198264139E+03	 9.814599609E+03
 1.198814623E+03	 9.718000000E+03
 1.199365050E+03	 9.783200195E+03
 1.199915420E+03	 9.722400391E+03
 1.200465734E+03	 9.693799805E+03
 1.201015990E+03	 9.746000000E+03
 1.201566191E+03	 9.688000000E+03
 1.202116334E+03	 9.712200195E+03
 1.202666421E+03	 9.745400391E+03
 1.203216452E+03	 9.720400391E+03
 1.203766425E+03	 9.697599609E+03
 1.204316343E+03	 9.679799805E+03
 1.204866203E+03	 9.733599609E+03
 1.205416007E+03	 9.703000000E+03
 1.205965754E+03	 9.679000000E+03
 1.206515445E+03	 9.676200195E+03
 1.207065079E+03	 9.635200195E+03
 1.207614657E+03	 9.607599609E+03
 1.208164177E+03	 9.640599609E+03
 1.208713642E+03	 9.597599609E+03
 1.209263050E+03	 9.656400391E+03
 1.209812401E+03	 9.624000000E+03
 1.210361695E+03	 9.655599609E+03
 1.210910933E+03	 9.609000000E+03
 1.211460115E+03	 9.650000000E+03
 1.212009240E+03	 9.581400391E+03
 1.212558308E+03	 9.629200195E+03
 1.213107320E+03	 9.591799805E+03
 1.213656275E+03	 9.578000000E+03
 1.214205174E+03	 9.610200195E+03
 1.214754016E+03	 9.551000000E+03
 1.215302801E+03	 9.566799805E+03
 1.215851530E+03	 9.570000000E+03
 1.216400203E+03	 9.590200195E+03
 1.216948819E+03	 9.489200195E+03
 1.217497378E+03	 9.571200195E+03
 1.218045881E+03	 9.495400391E+03
 1.218594327E+03	 9.501000000E+03
 1.219142717E+03	 9.541200195E+03
 1.219691051E+03	 9.508000000E+03
 1.220239327E+03	 9.468200195E+03
 1.220787548E+03	 9.556200195E+03
 1.221335712E+03	 9.511000000E+03
 1.221883819E+03	 9.461599609E+03
 1.222431870E+03	 9.501200195E+03
 1.222979864E+03	 9.520400391E+03
 1.223527802E+03	 9.477400391E+03
 1.224075683E+03	 9.439000000E+03
 1.224623508E+03	 9.462799805E+03
 1.225171277E+03	 9.534799805E+03
 1.225718989E+03	 9.429400391E+03
 1.226266644E+03	 9.418000000E+03
 1.226814243E+03	 9.420599609E+03
 1.227361786E+03	 9.399400391E+03
 1.227909272E+03	 9.407000000E+03
 1.228456702E+03	 9.461799805E+03
 1.229004075E+03	 9.428400391E+03
 1.229551392E+03	 9.382200195E+03
 1.230098652E+03	 9.446400391E+03
 1.230645856E+03	 9.371200195E+03
 1.231193003E+03	 9.474000000E+03
 1.231740094E+03	 9.371200195E+03
 1.232287129E+03	 9.403200195E+03
 1.232834107E+03	 9.359799805E+03
 1.233381029E+03	 9.401400391E+03
 1.233927894E+03	 9.382400391E+03
 1.234474703E+03	 9.387599609E+03
 1.235021455E+03	 9.342000000E+03
 1.235568151E+03	 9.382400391E+03
 1.236114791E+03	 9.343400391E+03
 1.236661374E+03	 9.398400391E+03
 1.237207901E+03	 9.334400391E+03
 1.237754372E+03	 9.343400391E+03
 1.238300786E+03	 9.292200195E+03
 1.238847144E+03	 9.333000000E+03
 1.239393445E+03	 9.318000000E+03
 1.239939690E+03	 9.284000000E+03
 1.240485879E+03	 9.302400391E+03
 1.241032011E+03	 9.296599609E+03
 1.241578087E+03	 9.302599609E+03
 1.242124106E+03	 9.283400391E+03
 1.242670070E+03	 9.288200195E+03
 1.243215976E+03	 9.280200195E+03
 1.243761827E+03	 9.222200195E+03
 1.244307621E+03	 9.208000000E+03
 1.244853359E+03	 9.244599609E+03
 1.245399040E+03	 9.221200195E+03
 1.245944665E+03	 9.297400391E+03
 1.246490234E+03	 9.237400391E+03
 1.247035746E+03	 9.269799805E+03
 1.247581203E+03	 9.236799805E+03
 1.248126602E+03	 9.273200195E+03
 1.248671946E+03	 9.178599609E+03
 1.249217233E+03	 9.188200195E+03
 1.249762464E+03	 9.195200195E+03
 1.250307638E+03	 9.201000000E+03
 1.250852757E+03	 9.193400391E+03
 1.251397819E+03	 9.186400391E+03
 1.251942824E+03	 9.221200195E+03
 1.252487774E+03	 9.179000000E+03
 1.253032667E+03	 9.222000000E+03
 1.253577503E+03	 9.195200195E+03
 1.254122284E+03	 9.165400391E+03
 1.254667008E+03	 9.170599609E+03
 1.255211676E+03	 9.141400391E+03
 1.255756288E+03	 9.138400391E+03
 1.256300843E+03	 9.145799805E+03
 1.256845342E+03	 9.138400391E+03
 1.257389785E+03	 9.147400391E+03
 1.257934172E+03	 9.106200195E+03
 1.258478502E+03	 9.142599609E+03
 1.259022776E+03	 9.109799805E+03
 1.259566994E+03	 9.210000000E+03
 1.260111156E+03	 9.089599609E+03
 1.260655261E+03	 9.113200195E+03
 1.261199311E+03	 9.081200195E+03
 1.261743304E+03	 9.120200195E+03
 1.262287240E+03	 9.028799805E+03
 1.262831121E+03	 9.110599609E+03
 1.263374945E+03	 9.025599609E+03
 1.263918713E+03	 9.113200195E+03
 1.264462425E+03	 9.067200195E+03
 1.265006081E+03	 9.110000000E+03
 1.265549680E+03	 9.126200195E+03
 1.266093223E+03	 9.110799805E+03
 1.266636711E+03	 9.015599609E+03
 1.267180141E+03	 9.033400391E+03
 1.267723516E+03	 9.072200195E+03
 1.268266835E+03	 9.094000000E+03
 1.268810097E+03	 9.017799805E+03
 1.269353303E+03	 9.035799805E+03
 1.269896453E+03	 8.978799805E+03
 1.270439547E+03	 8.984599609E+03
 1.270982584E+03	 8.990599609E+03
 1.271525566E+03	 8.987000000E+03
 1.272068491E+03	 9.003799805E+03
 1.272611360E+03	 8.978200195E+03
 1.273154173E+03	 9.054000000E+03
 1.273696930E+03	 8.972000000E+03
 1.274239631E+03	 9.007799805E+03
 1.274782275E+03	 8.928599609E+03
 1.275324864E+03	 8.982400391E+03
 1.275867396E+03	 8.926599609E+03
 1.276409872E+03	 8.961599609E+03
 1.276952292E+03	 8.974200195E+03
 1.277494656E+03	 8.946200195E+03
 1.278036964E+03	 8.918799805E+03
 1.278579215E+03	 8.964000000E+03
 1.279121411E+03	 8.950400391E+03
 1.279663550E+03	 8.952200195E+03
 1.280205634E+03	 8.877599609E+03
 1.280747661E+03	 8.892400391E+03
 1.281289632E+03	 8.926200195E+03
 1.281831547E+03	 8.936400391E+03
 1.282373406E+03	 8.875200195E+03
 1.282915209E+03	 8.914200195E+03
 1.283456955E+03	 8.868200195E+03
 1.283998646E+03	 8.912200195E+03
 1.284540281E+03	 8.965000000E+03
 1.285081859E+03	 9.221000000E+03
 1.285623381E+03	 9.967799805E+03
 1.286164848E+03	 9.739000000E+03
 1.286706258E+03	 9.088200195E+03
 1.287247612E+03	 8.917200195E+03
 1.287788911E+03	 8.879400391E+03
 1.288330153E+03	 8.847599609E+03
 1.288871339E+03	 8.799799805E+03
 1.289412469E+03	 8.855000000E+03
 1.289953543E+03	 8.828200195E+03
 1.290494561E+03	 8.805400391E+03
 1.291035523E+03	 8.806000000E+03
 1.291576428E+03	 8.816200195E+03
 1.292117278E+03	 8.833000000E+03
 1.292658072E+03	 8.785000000E+03
 1.293198810E+03	 8.795400391E+03
 1.293739492E+03	 8.757799805E+03
 1.294280118E+03	 8.710200195E+03
 1.294820687E+03	 8.751400391E+03
 1.295361201E+03	 8.758799805E+03
 1.295901659E+03	 8.748599609E+03
 1.296442061E+03	 8.709599609E+03
 1.296982406E+03	 8.739000000E+03
 1.297522696E+03	 8.737799805E+03
 1.298062930E+03	 8.714200195E+03
 1.298603108E+03	 8.732400391E+03
 1.299143229E+03	 8.633200195E+03
 1.299683295E+03	 8.736000000E+03
 1.300223305E+03	 8.663000000E+03
 1.300763259E+03	 8.670000000E+03
 1.301303157E+03	 8.708400391E+03
 1.301842999E+03	 8.698200195E+03
 1.302382785E+03	 8.633599609E+03
 1.302922515E+03	 8.664200195E+03
 1.303462189E+03	 8.698599609E+03
 1.304001807E+03	 8.671000000E+03
 1.304541369E+03	 8.687599609E+03
 1.305080875E+03	 8.694400391E+03
 1.305620326E+03	 8.677599609E+03
 1.306159720E+03	 8.634799805E+03
 1.306699058E+03	 8.650799805E+03
 1.307238341E+03	 8.581000000E+03
 1.307777567E+03	 8.674000000E+03
 1.308316738E+03	 8.561000000E+03
 1.308855853E+03	 8.651400391E+03
 1.309394912E+03	 8.582000000E+03
 1.309933915E+03	 8.618400391E+03
 1.310472862E+03	 8.608400391E+03
 1.311011753E+03	 8.610400391E+03
 1.311550588E+03	 8.605200195E+03
 1.312089367E+03	 8.590400391E+03
 1.312628090E+03	 8.607799805E+03
 1.313166758E+03	 8.568200195E+03
 1.313705370E+03	 8.630000000E+03
 1.314243925E+03	 8.552000000E+03
 1.314782425E+03	 8.577200195E+03
 1.315320869E+03	 8.614400391E+03
 1.315859257E+03	 8.571799805E+03
 1.316397589E+03	 8.540000000E+03
 1.316935866E+03	 8.587599609E+03
 1.317474086E+03	 8.528000000E+03
 1.318012251E+03	 8.568799805E+03
 1.318550360E+03	 8.488200195E+03
 1.319088413E+03	 8.552599609E+03
 1.319626410E+03	 8.474799805E+03
 1.320164351E+03	 8.536000000E+03
 1.320702236E+03	 8.508200195E+03
 1.321240066E+03	 8.484400391E+03
 1.321777839E+03	 8.432400391E+03
 1.322315557E+03	 8.491000000E+03
 1.322853219E+03	 8.477000000E+03
 1.323390826E+03	 8.545799805E+03
 1.323928376E+03	 8.450200195E+03
 1.324465871E+03	 8.480000000E+03
 1.325003309E+03	 8.472000000E+03
 1.325540692E+03	 8.448599609E+03
 1.326078020E+03	 8.454000000E+03
 1.326615291E+03	 8.450799805E+03
 1.327152506E+03	 8.468599609E+03
 1.327689666E+03	 8.410599609E+03
 1.328226770E+03	 8.501400391E+03
 1.328763818E+03	 8.480599609E+03
 1.329300811E+03	 8.432599609E+03
 1.329837747E+03	 8.468400391E+03
 1.330374628E+03	 8.447000000E+03
 1.330911453E+03	 8.385400391E+03
 1.331448222E+03	 8.464599609E+03
 1.331984936E+03	 8.397400391E+03
 1.332521594E+03	 8.405599609E+03
 1.333058196E+03	 8.363200195E+03
 1.333594742E+03	 8.420200195E+03
 1.334131232E+03	 8.421200195E+03
 1.334667667E+03	 8.356799805E+03
 1.335204046E+03	 8.363200195E+03
 1.335740369E+03	 8.415799805E+03
 1.336276637E+03	 8.367400391E+03
 1.336812848E+03	 8.401599609E+03
 1.337349004E+03	 8.404599609E+03
 1.337885105E+03	 8.413400391E+03
 1.338421149E+03	 8.432000000E+03
 1.338957138E+03	 8.347400391E+03
 1.339493071E+03	 8.397799805E+03
 1.340028949E+03	 8.350000000E+03
 1.340564770E+03	 8.384400391E+03
 1.341100536E+03	 8.386599609E+03
 1.341636246E+03	 8.357400391E+03
 1.342171901E+03	 8.288000000E+03
 1.342707500E+03	 8.333799805E+03
 1.343243043E+03	 8.284599609E+03
 1.343778530E+03	 8.330599609E+03
 1.344313962E+03	 8.310799805E+03
 1.344849338E+03	 8.297799805E+03
 1.345384659E+03	 8.249400391E+03
 1.345919923E+03	 8.270599609E+03
 1.346455133E+03	 8.254200195E+03
 1.346990286E+03	 8.323400391E+03
 1.347525384E+03	 8.279400391E+03
 1.348060426E+03	 8.272000000E+03
 1.348595412E+03	 8.263599609E+03
 1.349130343E+03	 8.283599609E+03
 1.349665218E+03	 8.258799805E+03
 1.350200037E+03	 8.276000000E+03
 1.350734801E+03	 8.255000000E+03
 1.351269509E+03	 8.241200195E+03
 1.351804162E+03	 8.253799805E+03
 1.352338758E+03	 8.220000000E+03
 1.352873300E+03	 8.248599609E+03
 1.353407785E+03	 8.236000000E+03
 1.353942215E+03	 8.262599609E+03
 1.354476589E+03	 8.183000000E+03
 1.355010908E+03	 8.243799805E+03
 1.355545171E+03	 8.181799805E+03
 1.356079379E+03	 8.238400391E+03
 1.356613530E+03	 8.231000000E+03
 1.357147627E+03	 8.218599609E+03
 1.357681667E+03	 8.154799805E+03
 1.358215652E+03	 8.182200195E+03
 1.358749582E+03	 8.239200195E+03
 1.359283456E+03	 8.164200195E+03
 1.359817274E+03	 8.193200195E+03
 1.360351037E+03	 8.106200195E+03
 1.360884744E+03	 8.176399902E+03
 1.361418395E+03	 8.160799805E+03
 1.361951991E+03	 8.150799805E+03
 1.362485531E+03	 8.164200195E+03
 1.363019016E+03	 8.176600098E+03
 1.363552445E+03	 8.169600098E+03
 1.364085819E+03	 8.173000000E+03
 1.364619137E+03	 8.141399902E+03
 1.365152400E+03	 8.122000000E+03
 1.365685607E+03	 8.154600098E+03
 1.366218758E+03	 8.138000000E+03
 1.366751854E+03	 8.130399902E+03
 1.367284894E+03	 8.130000000E+03
 1.367817879E+03	 8.175000000E+03
 1.368350808E+03	 8.114799805E+03
 1.368883682E+03	 8.120000000E+03
 1.369416500E+03	 8.083399902E+03
 1.369949263E+03	 8.132799805E+03
 1.370481970E+03	 8.131000000E+03
 1.371014622E+03	 8.149200195E+03
 1.371547218E+03	 8.045600098E+03
 1.372079758E+03	 8.083799805E+03
 1.372612244E+03	 8.033399902E+03
 1.373144673E+03	 8.069600098E+03
 1.373677047E+03	 8.024399902E+03
 1.374209366E+03	 8.108399902E+03
 1.374741629E+03	 8.044799805E+03
 1.375273836E+03	 8.102399902E+03
 1.375805989E+03	 7.988399902E+03
 1.376338085E+03	 8.053600098E+03
 1.376870126E+03	 8.025399902E+03
 1.377402112E+03	 8.052200195E+03
 1.377934042E+03	 8.053200195E+03
 1.378465917E+03	 8.017799805E+03
 1.378997736E+03	 8.077799805E+03
 1.379529500E+03	 8.025000000E+03
 1.380061208E+03	 8.051200195E+03
 1.380592861E+03	 7.985399902E+03
 1.381124459E+03	 8.061600098E+03
 1.381656000E+03	 7.987200195E+03
 1.382187487E+03	 8.056799805E+03
 1.382718918E+03	 7.965399902E+03
 1.383250294E+03	 8.049200195E+03
 1.383781614E+03	 7.979200195E+03
 1.384312879E+03	 8.030600098E+03
 1.384844088E+03	 7.943000000E+03
 1.385375242E+03	 7.956000000E+03
 1.385906340E+03	 7.992799805E+03
 1.386437383E+03	 7.966600098E+03
 1.386968371E+03	 8.001600098E+03
 1.387499303E+03	 8.045600098E+03
 1.388030180E+03	 8.230799805E+03
 1.388561001E+03	 8.872599609E+03
 1.389091767E+03	 1.001940039E+04
 1.389622478E+03	 8.742799805E+03
 1.390153133E+03	 8.132799805E+03
 1.390683733E+03	 7.950000000E+03
 1.391214277E+03	 8.021600098E+03
 1.391744766E+03	 7.938200195E+03
 1.392275200E+03	 7.964799805E+03
 1.392805578E+03	 7.934399902E+03
 1.393335901E+03	 7.937799805E+03
 1.393866168E+03	 7.880000000E+03
 1.394396381E+03	 7.931399902E+03
 1.394926537E+03	 7.917200195E+03
 1.395456639E+03	 7.919600098E+03
 1.395986685E+03	 7.923799805E+03
 1.396516675E+03	 7.902000000E+03
 1.397046611E+03	 7.893799805E+03
 1.397576491E+03	 7.872799805E+03
 1.398106315E+03	 7.918799805E+03
 1.398636084E+03	 7.869600098E+03
 1.399165798E+03	 7.907000000E+03
 1.399695457E+03	 7.848399902E+03
 1.400225060E+03	 7.928600098E+03
 1.400754608E+03	 7.849000000E+03
 1.401284101E+03	 7.901600098E+03
 1.401813538E+03	 7.864000000E+03
 1.402342920E+03	 7.881200195E+03
 1.402872247E+03	 7.916799805E+03
 1.403401518E+03	 7.888799805E+03
 1.403930734E+03	 7.846399902E+03
 1.404459895E+03	 7.928600098E+03
 1.404989000E+03	 7.953600098E+03
 1.405518050E+03	 7.859200195E+03
 1.406047045E+03	 7.859600098E+03
 1.406575984E+03	 7.825399902E+03
 1.407104869E+03	 7.849200195E+03
 1.407633697E+03	 7.824200195E+03
 1.408162471E+03	 7.845200195E+03
 1.408691189E+03	 7.836600098E+03
 1.409219852E+03	 7.853799805E+03
 1.409748460E+03	 7.902399902E+03
 1.410277013E+03	 8.015799805E+03
 1.410805510E+03	 7.931399902E+03
 1.411333952E+03	 7.877000000E+03
 1.411862339E+03	 7.874600098E+03
 1.412390670E+03	 7.825200195E+03
 1.412918946E+03	 7.795000000E+03
 1.413447167E+03	 7.832200195E+03
 1.413975333E+03	 7.817000000E+03
 1.414503444E+03	 7.823799805E+03
 1.415031499E+03	 7.821000000E+03
 1.415559499E+03	 7.802799805E+03
 1.416087444E+03	 7.824399902E+03
 1.416615333E+03	 7.794399902E+03
 1.417143167E+03	 7.815399902E+03
 1.417670947E+03	 7.744399902E+03
 1.418198670E+03	 7.720600098E+03
 1.418726339E+03	 7.747799805E+03
 1.419253952E+03	 7.735200195E+03
 1.419781511E+03	 7.792000000E+03
 1.420309014E+03	 7.728399902E+03
 1.420836461E+03	 7.804399902E+03
 1.421363854E+03	 7.756799805E+03
 1.421891191E+03	 7.757200195E+03
 1.422418474E+03	 7.759799805E+03
 1.422945701E+03	 7.779399902E+03
 1.423472872E+03	 7.751799805E+03
 1.423999989E+03	 7.759799805E+03
 1.424527050E+03	 7.734200195E+03
 1.425054057E+03	 7.756399902E+03
 1.425581008E+03	 7.738600098E+03
 1.426107904E+03	 7.760799805E+03
 1.426634745E+03	 7.788600098E+03
 1.427161530E+03	 7.722000000E+03
 1.427688261E+03	 7.716799805E+03
 1.428214936E+03	 7.757600098E+03
 1.428741556E+03	 7.709600098E+03
 1.429268121E+03	 7.704399902E+03
 1.429794631E+03	 7.754200195E+03
 1.430321085E+03	 7.695600098E+03
 1.430847485E+03	 7.760600098E+03
 1.431373829E+03	 7.676799805E+03
 1.431900118E+03	 7.729200195E+03
 1.432426353E+03	 7.651799805E+03
 1.432952532E+03	 7.702000000E+03
 1.433478655E+03	 7.705600098E+03
 1.434004724E+03	 7.675000000E+03
 1.434530738E+03	 7.724000000E+03
 1.435056696E+03	 7.632799805E+03
 1.435582600E+03	 7.699600098E+03
 1.436108448E+03	 7.635000000E+03
 1.436634241E+03	 7.608399902E+03
 1.437159979E+03	 7.627000000E+03
 1.437685662E+03	 7.656200195E+03
 1.438211290E+03	 7.634600098E+03
 1.438736863E+03	 7.605600098E+03
 1.439262381E+03	 7.604200195E+03
 1.439787843E+03	 7.606600098E+03
 1.440313251E+03	 7.557799805E+03
 1.440838603E+03	 7.614399902E+03
 1.441363900E+03	 7.598600098E+03
 1.441889143E+03	 7.672200195E+03
 1.442414330E+03	 7.633200195E+03
 1.442939462E+03	 7.607799805E+03
 1.443464539E+03	 7.544799805E+03
 1.443989561E+03	 7.549799805E+03
 1.444514528E+03	 7.562799805E+03
 1.445039440E+03	 7.558799805E+03
 1.445564297E+03	 7.592000000E+03
 1.446089099E+03	 7.579399902E+03
 1.446613846E+03	 7.546799805E+03
 1.447138537E+03	 7.601799805E+03
 1.447663174E+03	 7.542399902E+03
 1.448187756E+03	 7.553799805E+03
 1.448712282E+03	 7.564600098E+03
 1.449236754E+03	 7.558000000E+03
 1.449761171E+03	 7.524799805E+03
 1.450285532E+03	 7.547000000E+03
 1.450809839E+03	 7.514200195E+03
 1.451334090E+03	 7.534399902E+03
 1.451858287E+03	 7.528799805E+03
 1.452382428E+03	 7.502399902E+03
 1.452906515E+03	 7.498399902E+03
 1.453430546E+03	 7.501799805E+03
 1.453954523E+03	 7.539000000E+03
 1.454478444E+03	 7.553200195E+03
 1.455002311E+03	 7.502000000E+03
 1.455526123E+03	 7.515399902E+03
 1.456049879E+03	 7.527200195E+03
 1.456573581E+03	 7.477399902E+03
 1.457097227E+03	 7.471600098E+03
 1.457620819E+03	 7.463200195E+03
 1.458144356E+03	 7.471399902E+03
 1.458667837E+03	 7.491399902E+03
 1.459191264E+03	 7.440600098E+03
 1.459714636E+03	 7.472200195E+03
 1.460237952E+03	 7.434799805E+03
 1.460761214E+03	 7.456200195E+03
 1.461284421E+03	 7.486600098E+03
 1.461807573E+03	 7.479000000E+03
 1.462330670E+03	 7.427000000E+03
 1.462853712E+03	 7.492000000E+03
 1.463376699E+03	 7.426399902E+03
 1.463899632E+03	 7.477200195E+03
 1.464422509E+03	 7.417399902E+03
 1.464945331E+03	 7.445200195E+03
 1.465468099E+03	 7.483799805E+03
 1.465990811E+03	 7.402399902E+03
 1.466513469E+03	 7.425799805E+03
 1.467036071E+03	 7.431600098E+03
 1.467558619E+03	 7.428600098E+03
 1.468081112E+03	 7.422200195E+03
 1.468603550E+03	 7.454600098E+03
 1.469125933E+03	 7.377600098E+03
 1.469648261E+03	 7.419200195E+03
 1.470170534E+03	 7.406200195E+03
 1.470692752E+03	 7.365399902E+03
 1.471214916E+03	 7.407000000E+03
 1.471737024E+03	 7.311200195E+03
 1.472259078E+03	 7.380799805E+03
 1.472781077E+03	 7.330000000E+03
 1.473303021E+03	 7.401200195E+03
 1.473824910E+03	 7.361399902E+03
 1.474346744E+03	 7.407399902E+03
 1.474868523E+03	 7.350200195E+03
 1.475390248E+03	 7.344200195E+03
 1.475911917E+03	 7.334799805E+03
 1.476433532E+03	 7.345000000E+03
 1.476955092E+03	 7.313600098E+03
 1.477476597E+03	 7.288200195E+03
 1.477998047E+03	 7.294000000E+03
 1.478519442E+03	 7.276799805E+03
 1.479040783E+03	 7.355799805E+03
 1.479562068E+03	 7.326600098E+03
 1.480083299E+03	 7.335000000E+03
 1.480604475E+03	 7.265000000E+03
 1.481125596E+03	 7.262600098E+03
 1.481646663E+03	 7.272200195E+03
 1.482167674E+03	 7.298600098E+03
 1.482688631E+03	 7.262600098E+03
 1.483209533E+03	 7.273399902E+03
 1.483730380E+03	 7.242200195E+03
 1.484251172E+03	 7.271600098E+03
 1.484771909E+03	 7.274399902E+03
 1.485292592E+03	 7.236399902E+03
 1.485813220E+03	 7.265600098E+03
 1.486333793E+03	 7.220799805E+03
 1.486854311E+03	 7.213399902E+03
 1.487374775E+03	 7.182399902E+03
 1.487895183E+03	 7.221399902E+03
 1.488415537E+03	 7.203399902E+03
 1.488935836E+03	 7.256000000E+03
 1.489456081E+03	 7.234799805E+03
 1.489976270E+03	 7.206200195E+03
 1.490496405E+03	 7.186600098E+03
 1.491016485E+03	 7.184399902E+03
 1.491536511E+03	 7.196799805E+03
 1.492056481E+03	 7.228600098E+03
 1.492576397E+03	 7.195399902E+03
 1.493096258E+03	 7.153399902E+03
 1.493616064E+03	 7.172600098E+03
 1.494135816E+03	 7.170600098E+03
 1.494655513E+03	 7.216799805E+03
 1.495175155E+03	 7.139600098E+03
 1.495694742E+03	 7.127000000E+03
 1.496214274E+03	 7.132399902E+03
 1.496733752E+03	 7.139600098E+03
 1.497253175E+03	 7.203000000E+03
 1.497772544E+03	 7.182399902E+03
 1.498291858E+03	 7.160399902E+03
 1.498811116E+03	 7.143000000E+03
 1.499330321E+03	 7.183399902E+03
 1.499849470E+03	 7.158600098E+03
 1.500368565E+03	 7.138000000E+03
 1.500887605E+03	 7.129200195E+03
 1.501406591E+03	 7.134600098E+03
 1.501925521E+03	 7.141000000E+03
 1.502444397E+03	 7.105600098E+03
 1.502963219E+03	 7.158600098E+03
 1.503481985E+03	 7.115000000E+03
 1.504000697E+03	 7.121799805E+03
 1.504519355E+03	 7.125799805E+03
 1.505037957E+03	 7.097799805E+03
 1.505556505E+03	 7.111399902E+03
 1.506074999E+03	 7.142399902E+03
 1.506593437E+03	 7.042799805E+03
 1.507111821E+03	 7.127600098E+03
 1.507630150E+03	 7.068399902E+03
 1.508148425E+03	 7.083200195E+03
 1.508666645E+03	 7.027600098E+03
 1.509184810E+03	 7.066600098E+03
 1.509702921E+03	 7.041000000E+03
 1.510220977E+03	 7.061399902E+03
 1.510738979E+03	 7.071000000E+03
 1.511256925E+03	 7.051200195E+03
 1.511774817E+03	 7.100600098E+03
 1.512292655E+03	 7.040600098E+03
 1.512810438E+03	 7.079200195E+03
 1.513328166E+03	 7.016799805E+03
 1.513845840E+03	 7.063399902E+03
 1.514363459E+03	 7.039399902E+03
 1.514881023E+03	 7.042799805E+03
 1.515398533E+03	 7.063600098E+03
 1.515915988E+03	 7.108200195E+03
 1.516433389E+03	 7.057000000E+03
 1.516950734E+03	 7.036799805E+03
 1.517468026E+03	 7.016000000E+03
 1.517985263E+03	 7.043000000E+03
 1.518502445E+03	 7.001399902E+03
 1.519019572E+03	 7.040399902E+03
 1.519536645E+03	 6.994600098E+03
 1.520053664E+03	 7.008399902E+03
 1.520570628E+03	 7.027600098E+03
 1.521087537E+03	 7.028000000E+03
 1.521604392E+03	 7.004600098E+03
 1.522121192E+03	 6.986000000E+03
 1.522637937E+03	 7.009200195E+03
 1.523154628E+03	 7.003600098E+03
 1.523671265E+03	 6.982200195E+03
 1.524187847E+03	 7.023000000E+03
 1.524704374E+03	 6.951799805E+03
 1.525220847E+03	 7.003399902E+03
 1.525737265E+03	 7.006399902E+03
 1.526253629E+03	 6.991799805E+03
 1.526769938E+03	 7.017600098E+03
 1.527286192E+03	 7.004000000E+03
 1.527802392E+03	 7.030200195E+03
 1.528318538E+03	 6.988799805E+03
 1.528834629E+03	 6.982200195E+03
 1.529350666E+03	 7.021799805E+03
 1.529866648E+03	 6.972200195E+03
 1.530382575E+03	 7.000399902E+03
 1.530898448E+03	 7.000799805E+03
 1.531414266E+03	 7.039600098E+03
 1.531930030E+03	 6.990600098E+03
 1.532445740E+03	 6.973399902E+03
 1.532961395E+03	 6.988000000E+03
 1.533476995E+03	 6.975399902E+03
 1.533992541E+03	 7.027799805E+03
 1.534508033E+03	 7.011200195E+03
 1.535023470E+03	 6.966200195E+03
 1.535538852E+03	 6.946799805E+03
 1.536054180E+03	 6.996600098E+03
 1.536569454E+03	 7.004200195E+03
 1.537084673E+03	 7.014799805E+03
 1.537599837E+03	 6.950600098E+03
 1.538114947E+03	 6.988600098E+03
 1.538630003E+03	 7.071600098E+03
 1.539145004E+03	 7.293399902E+03
 1.539659951E+03	 7.137799805E+03
 1.540174843E+03	 7.131200195E+03
 1.540689681E+03	 7.114600098E+03
 1.541204465E+03	 7.145200195E+03
 1.541719194E+03	 7.142600098E+03
 1.542233868E+03	 7.051000000E+03
 1.542748488E+03	 6.993799805E+03
 1.543263054E+03	 6.981000000E+03
 1.543777565E+03	 6.988600098E+03
 1.544292022E+03	 6.961600098E+03
 1.544806424E+03	 6.950000000E+03
 1.545320772E+03	 6.957200195E+03
 1.545835066E+03	 6.918600098E+03
 1.546349305E+03	 6.970600098E+03
 1.546863489E+03	 6.981200195E+03
 1.547377620E+03	 7.020799805E+03
 1.547891696E+03	 6.942399902E+03
 1.548405717E+03	 6.947399902E+03
 1.548919684E+03	 6.967000000E+03
 1.549433597E+03	 6.967600098E+03
 1.549947455E+03	 6.955000000E+03
 1.550461259E+03	 6.934799805E+03
 1.550975009E+03	 6.959799805E+03
 1.551488704E+03	 6.986200195E+03
 1.552002345E+03	 6.926000000E+03
 1.552515931E+03	 6.945799805E+03
 1.553029463E+03	 6.934200195E+03
 1.553542941E+03	 6.961600098E+03
 1.554056364E+03	 6.971399902E+03
 1.554569733E+03	 6.955799805E+03
 1.555083048E+03	 6.933600098E+03
 1.555596308E+03	 6.928200195E+03
 1.556109514E+03	 6.920000000E+03
 1.556622665E+03	 6.925399902E+03
 1.557135762E+03	 6.922600098E+03
 1.557648805E+03	 6.936799805E+03
 1.558161794E+03	 6.931799805E+03
 1.558674728E+03	 6.949200195E+03
 1.559187608E+03	 6.932200195E+03
 1.559700433E+03	 6.926399902E+03
 1.560213205E+03	 6.882399902E+03
 1.560725921E+03	 6.919799805E+03
 1.561238584E+03	 6.952799805E+03
 1.561751192E+03	 6.901200195E+03
 1.562263746E+03	 6.909000000E+03
 1.562776246E+03	 6.889799805E+03
 1.563288691E+03	 6.928399902E+03
 1.563801082E+03	 6.905399902E+03
 1.564313419E+03	 6.919399902E+03
 1.564825701E+03	 6.876000000E+03
 1.565337929E+03	 6.950399902E+03
 1.565850103E+03	 6.898399902E+03
 1.566362223E+03	 6.867000000E+03
 1.566874288E+03	 6.895600098E+03
 1.567386299E+03	 6.897600098E+03
 1.567898256E+03	 6.856799805E+03
 1.568410158E+03	 6.870799805E+03
 1.568922007E+03	 6.908799805E+03
 1.569433800E+03	 6.854799805E+03
 1.569945540E+03	 6.885000000E+03
 1.570457226E+03	 6.859200195E+03
 1.570968857E+03	 6.891399902E+03
 1.571480434E+03	 6.910399902E+03
 1.571991956E+03	 6.884200195E+03
 1.572503425E+03	 6.859000000E+03
 1.573014839E+03	 6.843200195E+03
 1.573526199E+03	 6.865600098E+03
 1.574037505E+03	 6.836600098E+03
 1.574548756E+03	 6.834000000E+03
 1.575059953E+03	 6.867399902E+03
 1.575571096E+03	 6.868000000E+03
 1.576082185E+03	 6.825799805E+03
 1.576593220E+03	 6.854000000E+03
 1.577104200E+03	 6.861600098E+03
 1.577615126E+03	 6.849000000E+03
 1.578125998E+03	 6.888399902E+03
 1.578636816E+03	 6.855399902E+03
 1.579147580E+03	 6.829200195E+03
 1.579658289E+03	 6.819000000E+03
 1.580168944E+03	 6.842799805E+03
 1.580679545E+03	 6.821000000E+03
 1.581190092E+03	 6.844000000E+03
 1.581700585E+03	 6.794600098E+03
 1.582211023E+03	 6.779600098E+03
 1.582721407E+03	 6.789399902E+03
 1.583231737E+03	 6.815000000E+03
 1.583742013E+03	 6.798799805E+03
 1.584252235E+03	 6.787600098E+03
 1.584762403E+03	 6.820799805E+03
 1.585272516E+03	 6.810200195E+03
 1.585782575E+03	 6.869200195E+03
 1.586292581E+03	 6.749600098E+03
 1.586802532E+03	 6.817799805E+03
 1.587312428E+03	 6.812000000E+03
 1.587822271E+03	 6.757799805E+03
 1.588332060E+03	 6.767399902E+03
 1.588841794E+03	 6.783600098E+03
 1.589351474E+03	 6.811799805E+03
 1.589861100E+03	 6.783000000E+03
 1.590370672E+03	 6.776000000E+03
 1.590880190E+03	 6.831000000E+03
 1.591389654E+03	 6.790600098E+03
 1.591899064E+03	 6.755200195E+03
 1.592408419E+03	 6.826200195E+03
