 1.042452273E+03	 2.762000000E+03
 1.043018714E+03	 2.764666748E+03
 1.043585098E+03	 2.786000000E+03
 1.044151424E+03	 2.759666748E+03
 1.044717692E+03	 2.738333252E+03
 1.045283903E+03	 2.760333252E+03
 1.045850056E+03	 2.733000000E+03
 1.046416151E+03	 2.744000000E+03
 1.046982188E+03	 2.752333252E+03
 1.047548167E+03	 2.759000000E+03
 1.048114089E+03	 2.745000000E+03
 1.048679953E+03	 2.736333252E+03
 1.049245760E+03	 2.767000000E+03
 1.049811509E+03	 2.760333252E+03
 1.050377200E+03	 2.733000000E+03
 1.050942833E+03	 2.764000000E+03
 1.051508408E+03	 2.741666748E+03
 1.052073926E+03	 2.695333252E+03
 1.052639387E+03	 2.733333252E+03
 1.053204789E+03	 2.736333252E+03
 1.053770134E+03	 2.750333252E+03
 1.054335421E+03	 2.752000000E+03
 1.054900651E+03	 2.735666748E+03
 1.055465823E+03	 2.722666748E+03
 1.056030937E+03	 2.713000000E+03
 1.056595993E+03	 2.709000000E+03
 1.057160992E+03	 2.727333252E+03
 1.057725934E+03	 2.708333252E+03
 1.058290817E+03	 2.723333252E+03
 1.058855643E+03	 2.708333252E+03
 1.059420411E+03	 2.739000000E+03
 1.059985122E+03	 2.721333252E+03
 1.060549775E+03	 2.718333252E+03
 1.061114371E+03	 2.706333252E+03
 1.061678908E+03	 2.704333252E+03
 1.062243389E+03	 2.725000000E+03
 1.062807811E+03	 2.746000000E+03
 1.063372176E+03	 2.715333252E+03
 1.063936483E+03	 2.703666748E+03
 1.064500733E+03	 2.738666748E+03
 1.065064925E+03	 2.724000000E+03
 1.065629060E+03	 2.704666748E+03
 1.066193137E+03	 2.727000000E+03
 1.066757156E+03	 2.685000000E+03
 1.067321118E+03	 2.728000000E+03
 1.067885022E+03	 2.705333252E+03
 1.068448869E+03	 2.707666748E+03
 1.069012658E+03	 2.692000000E+03
 1.069576390E+03	 2.706000000E+03
 1.070140063E+03	 2.729333252E+03
 1.070703680E+03	 2.714666748E+03
 1.071267239E+03	 2.716000000E+03
 1.071830740E+03	 2.675000000E+03
 1.072394184E+03	 2.694000000E+03
 1.072957570E+03	 2.675666748E+03
 1.073520899E+03	 2.724333252E+03
 1.074084170E+03	 2.652666748E+03
 1.074647383E+03	 2.697333252E+03
 1.075210540E+03	 2.691333252E+03
 1.075773638E+03	 2.701333252E+03
 1.076336679E+03	 2.678333252E+03
 1.076899663E+03	 2.642000000E+03
 1.077462589E+03	 2.694333252E+03
 1.078025457E+03	 2.642333252E+03
 1.078588268E+03	 2.701000000E+03
 1.079151022E+03	 2.661666748E+03
 1.079713718E+03	 2.640333252E+03
 1.080276356E+03	 2.674666748E+03
 1.080838937E+03	 2.670000000E+03
 1.081401461E+03	 2.652333252E+03
 1.081963927E+03	 2.687333252E+03
 1.082526336E+03	 2.651333252E+03
 1.083088687E+03	 2.665000000E+03
 1.083650981E+03	 2.658666748E+03
 1.084213217E+03	 2.634333252E+03
 1.084775396E+03	 2.628000000E+03
 1.085337517E+03	 2.673000000E+03
 1.085899581E+03	 2.656666748E+03
 1.086461587E+03	 2.649000000E+03
 1.087023536E+03	 2.612666748E+03
 1.087585428E+03	 2.650333252E+03
 1.088147262E+03	 2.629333252E+03
 1.088709039E+03	 2.654000000E+03
 1.089270758E+03	 2.641000000E+03
 1.089832420E+03	 2.645000000E+03
 1.090394024E+03	 2.622666748E+03
 1.090955571E+03	 2.638000000E+03
 1.091517061E+03	 2.584000000E+03
 1.092078493E+03	 2.609333252E+03
 1.092639868E+03	 2.581333252E+03
 1.093201185E+03	 2.592333252E+03
 1.093762445E+03	 2.618000000E+03
 1.094323648E+03	 2.641000000E+03
 1.094884793E+03	 2.585333252E+03
 1.095445881E+03	 2.610666748E+03
 1.096006911E+03	 2.609333252E+03
 1.096567884E+03	 2.627333252E+03
 1.097128800E+03	 2.593666748E+03
 1.097689659E+03	 2.610333252E+03
 1.098250460E+03	 2.579666748E+03
 1.098811203E+03	 2.581333252E+03
 1.099371890E+03	 2.590666748E+03
 1.099932518E+03	 2.622333252E+03
 1.100493090E+03	 2.558666748E+03
 1.101053604E+03	 2.603000000E+03
 1.101614061E+03	 2.575666748E+03
 1.102174461E+03	 2.586000000E+03
 1.102734803E+03	 2.572666748E+03
 1.103295088E+03	 2.602333252E+03
 1.103855316E+03	 2.572666748E+03
 1.104415486E+03	 2.610666748E+03
 1.104975599E+03	 2.544666748E+03
 1.105535655E+03	 2.581000000E+03
 1.106095653E+03	 2.537000000E+03
 1.106655594E+03	 2.590000000E+03
 1.107215478E+03	 2.576000000E+03
 1.107775305E+03	 2.610666748E+03
 1.108335074E+03	 2.539666748E+03
 1.108894786E+03	 2.605666748E+03
 1.109454440E+03	 2.530666748E+03
 1.110014038E+03	 2.579000000E+03
 1.110573578E+03	 2.543333252E+03
 1.111133061E+03	 2.572000000E+03
 1.111692486E+03	 2.557666748E+03
 1.112251854E+03	 2.541333252E+03
 1.112811165E+03	 2.558333252E+03
 1.113370419E+03	 2.547000000E+03
 1.113929616E+03	 2.531000000E+03
 1.114488755E+03	 2.555000000E+03
 1.115047837E+03	 2.565000000E+03
 1.115606862E+03	 2.536000000E+03
 1.116165830E+03	 2.572333252E+03
 1.116724740E+03	 2.565666748E+03
 1.117283593E+03	 2.527333252E+03
 1.117842389E+03	 2.542000000E+03
 1.118401128E+03	 2.519333252E+03
 1.118959809E+03	 2.521000000E+03
 1.119518433E+03	 2.556666748E+03
 1.120077000E+03	 2.556333252E+03
 1.120635510E+03	 2.528333252E+03
 1.121193963E+03	 2.530000000E+03
 1.121752358E+03	 2.527333252E+03
 1.122310697E+03	 2.545000000E+03
 1.122868978E+03	 2.517666748E+03
 1.123427202E+03	 2.544666748E+03
 1.123985368E+03	 2.500000000E+03
 1.124543478E+03	 2.534666748E+03
 1.125101530E+03	 2.500333252E+03
 1.125659526E+03	 2.538000000E+03
 1.126217464E+03	 2.525000000E+03
 1.126775345E+03	 2.512666748E+03
 1.127333168E+03	 2.491000000E+03
 1.127890935E+03	 2.517333252E+03
 1.128448644E+03	 2.522000000E+03
 1.129006297E+03	 2.518666748E+03
 1.129563892E+03	 2.489666748E+03
 1.130121430E+03	 2.502333252E+03
 1.130678911E+03	 2.505666748E+03
 1.131236335E+03	 2.492333252E+03
 1.131793701E+03	 2.499333252E+03
 1.132351011E+03	 2.514000000E+03
 1.132908263E+03	 2.507333252E+03
 1.133465458E+03	 2.513666748E+03
 1.134022597E+03	 2.516666748E+03
 1.134579678E+03	 2.524666748E+03
 1.135136702E+03	 2.523333252E+03
 1.135693669E+03	 2.505666748E+03
 1.136250578E+03	 2.479000000E+03
 1.136807431E+03	 2.501000000E+03
 1.137364227E+03	 2.504666748E+03
 1.137920965E+03	 2.534333252E+03
 1.138477647E+03	 2.503000000E+03
 1.139034271E+03	 2.480666748E+03
 1.139590839E+03	 2.520333252E+03
 1.140147349E+03	 2.505000000E+03
 1.140703802E+03	 2.511333252E+03
 1.141260198E+03	 2.486666748E+03
 1.141816537E+03	 2.497333252E+03
 1.142372820E+03	 2.508333252E+03
 1.142929045E+03	 2.478000000E+03
 1.143485213E+03	 2.507000000E+03
 1.144041323E+03	 2.509333252E+03
 1.144597377E+03	 2.504000000E+03
 1.145153374E+03	 2.532000000E+03
 1.145709314E+03	 2.507000000E+03
 1.146265197E+03	 2.518666748E+03
 1.146821023E+03	 2.515666748E+03
 1.147376792E+03	 2.482333252E+03
 1.147932503E+03	 2.507333252E+03
 1.148488158E+03	 2.495666748E+03
 1.149043756E+03	 2.491000000E+03
 1.149599297E+03	 2.515333252E+03
 1.150154781E+03	 2.512000000E+03
 1.150710207E+03	 2.508333252E+03
 1.151265577E+03	 2.503666748E+03
 1.151820890E+03	 2.525666748E+03
 1.152376146E+03	 2.501666748E+03
 1.152931345E+03	 2.510666748E+03
 1.153486487E+03	 2.518666748E+03
 1.154041572E+03	 2.505000000E+03
 1.154596600E+03	 2.491333252E+03
 1.155151571E+03	 2.493666748E+03
 1.155706485E+03	 2.519666748E+03
 1.156261342E+03	 2.484000000E+03
 1.156816142E+03	 2.502666748E+03
 1.157370885E+03	 2.486666748E+03
 1.157925572E+03	 2.506333252E+03
 1.158480201E+03	 2.525333252E+03
 1.159034774E+03	 2.511666748E+03
 1.159589289E+03	 2.532000000E+03
 1.160143748E+03	 2.488666748E+03
 1.160698149E+03	 2.490333252E+03
 1.161252494E+03	 2.492000000E+03
 1.161806782E+03	 2.503000000E+03
 1.162361013E+03	 2.497333252E+03
 1.162915187E+03	 2.501000000E+03
 1.163469304E+03	 2.477333252E+03
 1.164023364E+03	 2.487666748E+03
 1.164577368E+03	 2.484666748E+03
 1.165131314E+03	 2.484666748E+03
 1.165685204E+03	 2.484333252E+03
 1.166239036E+03	 2.490333252E+03
 1.166792812E+03	 2.468333252E+03
 1.167346531E+03	 2.499666748E+03
 1.167900193E+03	 2.497333252E+03
 1.168453798E+03	 2.482000000E+03
 1.169007347E+03	 2.468000000E+03
 1.169560838E+03	 2.469666748E+03
 1.170114273E+03	 2.432333252E+03
 1.170667650E+03	 2.475000000E+03
 1.171220971E+03	 2.478000000E+03
 1.171774235E+03	 2.487333252E+03
 1.172327443E+03	 2.463666748E+03
 1.172880593E+03	 2.480666748E+03
 1.173433687E+03	 2.456333252E+03
 1.173986723E+03	 2.464333252E+03
 1.174539703E+03	 2.462666748E+03
 1.175092626E+03	 2.490000000E+03
 1.175645493E+03	 2.456000000E+03
 1.176198302E+03	 2.454666748E+03
 1.176751055E+03	 2.477000000E+03
 1.177303751E+03	 2.465333252E+03
 1.177856390E+03	 2.469000000E+03
 1.178408972E+03	 2.468333252E+03
 1.178961498E+03	 2.446333252E+03
 1.179513966E+03	 2.467333252E+03
 1.180066378E+03	 2.483666748E+03
 1.180618733E+03	 2.437000000E+03
 1.181171032E+03	 2.428333252E+03
 1.181723273E+03	 2.427666748E+03
 1.182275458E+03	 2.459000000E+03
 1.182827586E+03	 2.430333252E+03
 1.183379657E+03	 2.442000000E+03
 1.183931672E+03	 2.438666748E+03
 1.184483630E+03	 2.450666748E+03
 1.185035531E+03	 2.453000000E+03
 1.185587375E+03	 2.453000000E+03
 1.186139162E+03	 2.428666748E+03
 1.186690893E+03	 2.419666748E+03
 1.187242567E+03	 2.423666748E+03
 1.187794184E+03	 2.449000000E+03
 1.188345745E+03	 2.452666748E+03
 1.188897249E+03	 2.442666748E+03
 1.189448696E+03	 2.407333252E+03
 1.190000086E+03	 2.428333252E+03
 1.190551420E+03	 2.440666748E+03
 1.191102697E+03	 2.427000000E+03
 1.191653918E+03	 2.428000000E+03
 1.192205081E+03	 2.424666748E+03
 1.192756188E+03	 2.420333252E+03
 1.193307238E+03	 2.440000000E+03
 1.193858232E+03	 2.436666748E+03
 1.194409169E+03	 2.463333252E+03
 1.194960049E+03	 2.437666748E+03
 1.195510872E+03	 2.412000000E+03
 1.196061639E+03	 2.437333252E+03
 1.196612349E+03	 2.460666748E+03
 1.197163003E+03	 2.419666748E+03
 1.197713599E+03	 2.442333252E+03
 1.198264139E+03	 2.412333252E+03
 1.198814623E+03	 2.427000000E+03
 1.199365050E+03	 2.411000000E+03
 1.199915420E+03	 2.421666748E+03
 1.200465734E+03	 2.408333252E+03
 1.201015990E+03	 2.399000000E+03
 1.201566191E+03	 2.426333252E+03
 1.202116334E+03	 2.391000000E+03
 1.202666421E+03	 2.402666748E+03
 1.203216452E+03	 2.404000000E+03
 1.203766425E+03	 2.415000000E+03
 1.204316343E+03	 2.403666748E+03
 1.204866203E+03	 2.389000000E+03
 1.205416007E+03	 2.369333252E+03
 1.205965754E+03	 2.432000000E+03
 1.206515445E+03	 2.413333252E+03
 1.207065079E+03	 2.393666748E+03
 1.207614657E+03	 2.377000000E+03
 1.208164177E+03	 2.385333252E+03
 1.208713642E+03	 2.406000000E+03
 1.209263050E+03	 2.423333252E+03
 1.209812401E+03	 2.375333252E+03
 1.210361695E+03	 2.389000000E+03
 1.210910933E+03	 2.405333252E+03
 1.211460115E+03	 2.379666748E+03
 1.212009240E+03	 2.404333252E+03
 1.212558308E+03	 2.391000000E+03
 1.213107320E+03	 2.392333252E+03
 1.213656275E+03	 2.379666748E+03
 1.214205174E+03	 2.389333252E+03
 1.214754016E+03	 2.372666748E+03
 1.215302801E+03	 2.401333252E+03
 1.215851530E+03	 2.386666748E+03
 1.216400203E+03	 2.379666748E+03
 1.216948819E+03	 2.390666748E+03
 1.217497378E+03	 2.362333252E+03
 1.218045881E+03	 2.367000000E+03
 1.218594327E+03	 2.358666748E+03
 1.219142717E+03	 2.359333252E+03
 1.219691051E+03	 2.359000000E+03
 1.220239327E+03	 2.359666748E+03
 1.220787548E+03	 2.394333252E+03
 1.221335712E+03	 2.375333252E+03
 1.221883819E+03	 2.357333252E+03
 1.222431870E+03	 2.350333252E+03
 1.222979864E+03	 2.386333252E+03
 1.223527802E+03	 2.374000000E+03
 1.224075683E+03	 2.342333252E+03
 1.224623508E+03	 2.350333252E+03
 1.225171277E+03	 2.361333252E+03
 1.225718989E+03	 2.384666748E+03
 1.226266644E+03	 2.368333252E+03
 1.226814243E+03	 2.380333252E+03
 1.227361786E+03	 2.352666748E+03
 1.227909272E+03	 2.365000000E+03
 1.228456702E+03	 2.358000000E+03
 1.229004075E+03	 2.362333252E+03
 1.229551392E+03	 2.380666748E+03
 1.230098652E+03	 2.351666748E+03
 1.230645856E+03	 2.355000000E+03
 1.231193003E+03	 2.365000000E+03
 1.231740094E+03	 2.358333252E+03
 1.232287129E+03	 2.382000000E+03
 1.232834107E+03	 2.368000000E+03
 1.233381029E+03	 2.341000000E+03
 1.233927894E+03	 2.377333252E+03
 1.234474703E+03	 2.376666748E+03
 1.235021455E+03	 2.385666748E+03
 1.235568151E+03	 2.364666748E+03
 1.236114791E+03	 2.347666748E+03
 1.236661374E+03	 2.350666748E+03
 1.237207901E+03	 2.340333252E+03
 1.237754372E+03	 2.312333252E+03
 1.238300786E+03	 2.345666748E+03
 1.238847144E+03	 2.347000000E+03
 1.239393445E+03	 2.338666748E+03
 1.239939690E+03	 2.348666748E+03
 1.240485879E+03	 2.349000000E+03
 1.241032011E+03	 2.341666748E+03
 1.241578087E+03	 2.326333252E+03
 1.242124106E+03	 2.373000000E+03
 1.242670070E+03	 2.322333252E+03
 1.243215976E+03	 2.354333252E+03
 1.243761827E+03	 2.310666748E+03
 1.244307621E+03	 2.354666748E+03
 1.244853359E+03	 2.327000000E+03
 1.245399040E+03	 2.296000000E+03
 1.245944665E+03	 2.328333252E+03
 1.246490234E+03	 2.350666748E+03
 1.247035746E+03	 2.343666748E+03
 1.247581203E+03	 2.329666748E+03
 1.248126602E+03	 2.307666748E+03
 1.248671946E+03	 2.371333252E+03
 1.249217233E+03	 2.327000000E+03
 1.249762464E+03	 2.332000000E+03
 1.250307638E+03	 2.320000000E+03
 1.250852757E+03	 2.324333252E+03
 1.251397819E+03	 2.351000000E+03
 1.251942824E+03	 2.313666748E+03
 1.252487774E+03	 2.304666748E+03
 1.253032667E+03	 2.296666748E+03
 1.253577503E+03	 2.324333252E+03
 1.254122284E+03	 2.342333252E+03
 1.254667008E+03	 2.315000000E+03
 1.255211676E+03	 2.322333252E+03
 1.255756288E+03	 2.340666748E+03
 1.256300843E+03	 2.312000000E+03
 1.256845342E+03	 2.335333252E+03
 1.257389785E+03	 2.327000000E+03
 1.257934172E+03	 2.343333252E+03
 1.258478502E+03	 2.342333252E+03
 1.259022776E+03	 2.324333252E+03
 1.259566994E+03	 2.291333252E+03
 1.260111156E+03	 2.315666748E+03
 1.260655261E+03	 2.335666748E+03
 1.261199311E+03	 2.312666748E+03
 1.261743304E+03	 2.316000000E+03
 1.262287240E+03	 2.305666748E+03
 1.262831121E+03	 2.309000000E+03
 1.263374945E+03	 2.320333252E+03
 1.263918713E+03	 2.310333252E+03
 1.264462425E+03	 2.332333252E+03
 1.265006081E+03	 2.361666748E+03
 1.265549680E+03	 2.370000000E+03
 1.266093223E+03	 2.332000000E+03
 1.266636711E+03	 2.310666748E+03
 1.267180141E+03	 2.325000000E+03
 1.267723516E+03	 2.308666748E+03
 1.268266835E+03	 2.310333252E+03
 1.268810097E+03	 2.293000000E+03
 1.269353303E+03	 2.291666748E+03
 1.269896453E+03	 2.291666748E+03
 1.270439547E+03	 2.278333252E+03
 1.270982584E+03	 2.284333252E+03
 1.271525566E+03	 2.304666748E+03
 1.272068491E+03	 2.285666748E+03
 1.272611360E+03	 2.287000000E+03
 1.273154173E+03	 2.310000000E+03
 1.273696930E+03	 2.285000000E+03
 1.274239631E+03	 2.258333252E+03
 1.274782275E+03	 2.298666748E+03
 1.275324864E+03	 2.317333252E+03
 1.275867396E+03	 2.291666748E+03
 1.276409872E+03	 2.283666748E+03
 1.276952292E+03	 2.281000000E+03
 1.277494656E+03	 2.253000000E+03
 1.278036964E+03	 2.280000000E+03
 1.278579215E+03	 2.328000000E+03
 1.279121411E+03	 2.281000000E+03
 1.279663550E+03	 2.264333252E+03
 1.280205634E+03	 2.265000000E+03
 1.280747661E+03	 2.293333252E+03
 1.281289632E+03	 2.290333252E+03
 1.281831547E+03	 2.296000000E+03
 1.282373406E+03	 2.289000000E+03
 1.282915209E+03	 2.312666748E+03
 1.283456955E+03	 2.291666748E+03
 1.283998646E+03	 2.328333252E+03
 1.284540281E+03	 2.449333252E+03
 1.285081859E+03	 2.791000000E+03
 1.285623381E+03	 3.351333252E+03
 1.286164848E+03	 2.928666748E+03
 1.286706258E+03	 2.463333252E+03
 1.287247612E+03	 2.331666748E+03
 1.287788911E+03	 2.309666748E+03
 1.288330153E+03	 2.283666748E+03
 1.288871339E+03	 2.289000000E+03
 1.289412469E+03	 2.266000000E+03
 1.289953543E+03	 2.234000000E+03
 1.290494561E+03	 2.282333252E+03
 1.291035523E+03	 2.266666748E+03
 1.291576428E+03	 2.258666748E+03
 1.292117278E+03	 2.293000000E+03
 1.292658072E+03	 2.249333252E+03
 1.293198810E+03	 2.267666748E+03
 1.293739492E+03	 2.238333252E+03
 1.294280118E+03	 2.261666748E+03
 1.294820687E+03	 2.237333252E+03
 1.295361201E+03	 2.259666748E+03
 1.295901659E+03	 2.236333252E+03
 1.296442061E+03	 2.246666748E+03
 1.296982406E+03	 2.243666748E+03
 1.297522696E+03	 2.240666748E+03
 1.298062930E+03	 2.213333252E+03
 1.298603108E+03	 2.261666748E+03
 1.299143229E+03	 2.227666748E+03
 1.299683295E+03	 2.266000000E+03
 1.300223305E+03	 2.217333252E+03
 1.300763259E+03	 2.249000000E+03
 1.301303157E+03	 2.209666748E+03
 1.301842999E+03	 2.237333252E+03
 1.302382785E+03	 2.214333252E+03
 1.302922515E+03	 2.257000000E+03
 1.303462189E+03	 2.249333252E+03
 1.304001807E+03	 2.247333252E+03
 1.304541369E+03	 2.251000000E+03
 1.305080875E+03	 2.233666748E+03
 1.305620326E+03	 2.241666748E+03
 1.306159720E+03	 2.222666748E+03
 1.306699058E+03	 2.239000000E+03
 1.307238341E+03	 2.234666748E+03
 1.307777567E+03	 2.197666748E+03
 1.308316738E+03	 2.218000000E+03
 1.308855853E+03	 2.235333252E+03
 1.309394912E+03	 2.216666748E+03
 1.309933915E+03	 2.247000000E+03
 1.310472862E+03	 2.202666748E+03
 1.311011753E+03	 2.221333252E+03
 1.311550588E+03	 2.215000000E+03
 1.312089367E+03	 2.206333252E+03
 1.312628090E+03	 2.223000000E+03
 1.313166758E+03	 2.236333252E+03
 1.313705370E+03	 2.213666748E+03
 1.314243925E+03	 2.199333252E+03
 1.314782425E+03	 2.214000000E+03
 1.315320869E+03	 2.206666748E+03
 1.315859257E+03	 2.204000000E+03
 1.316397589E+03	 2.223000000E+03
 1.316935866E+03	 2.215000000E+03
 1.317474086E+03	 2.216000000E+03
 1.318012251E+03	 2.191666748E+03
 1.318550360E+03	 2.211000000E+03
 1.319088413E+03	 2.204333252E+03
 1.319626410E+03	 2.220666748E+03
 1.320164351E+03	 2.214000000E+03
 1.320702236E+03	 2.208000000E+03
 1.321240066E+03	 2.221333252E+03
 1.321777839E+03	 2.210666748E+03
 1.322315557E+03	 2.222333252E+03
 1.322853219E+03	 2.184333252E+03
 1.323390826E+03	 2.204333252E+03
 1.323928376E+03	 2.208333252E+03
 1.324465871E+03	 2.210333252E+03
 1.325003309E+03	 2.175333252E+03
 1.325540692E+03	 2.202000000E+03
 1.326078020E+03	 2.190666748E+03
 1.326615291E+03	 2.195000000E+03
 1.327152506E+03	 2.186333252E+03
 1.327689666E+03	 2.219333252E+03
 1.328226770E+03	 2.193000000E+03
 1.328763818E+03	 2.184666748E+03
 1.329300811E+03	 2.180666748E+03
 1.329837747E+03	 2.184000000E+03
 1.330374628E+03	 2.210666748E+03
 1.330911453E+03	 2.201666748E+03
 1.331448222E+03	 2.179333252E+03
 1.331984936E+03	 2.195000000E+03
 1.332521594E+03	 2.208666748E+03
 1.333058196E+03	 2.212000000E+03
 1.333594742E+03	 2.157000000E+03
 1.334131232E+03	 2.203000000E+03
 1.334667667E+03	 2.186000000E+03
 1.335204046E+03	 2.168666748E+03
 1.335740369E+03	 2.163000000E+03
 1.336276637E+03	 2.166666748E+03
 1.336812848E+03	 2.188333252E+03
 1.337349004E+03	 2.185333252E+03
 1.337885105E+03	 2.184333252E+03
 1.338421149E+03	 2.180666748E+03
 1.338957138E+03	 2.172000000E+03
 1.339493071E+03	 2.145000000E+03
 1.340028949E+03	 2.179333252E+03
 1.340564770E+03	 2.178666748E+03
 1.341100536E+03	 2.164666748E+03
 1.341636246E+03	 2.181333252E+03
 1.342171901E+03	 2.148666748E+03
 1.342707500E+03	 2.195666748E+03
 1.343243043E+03	 2.138666748E+03
 1.343778530E+03	 2.151000000E+03
 1.344313962E+03	 2.146000000E+03
 1.344849338E+03	 2.160666748E+03
 1.345384659E+03	 2.187000000E+03
 1.345919923E+03	 2.156666748E+03
 1.346455133E+03	 2.145666748E+03
 1.346990286E+03	 2.177333252E+03
 1.347525384E+03	 2.154666748E+03
 1.348060426E+03	 2.137666748E+03
 1.348595412E+03	 2.146000000E+03
 1.349130343E+03	 2.149666748E+03
 1.349665218E+03	 2.157666748E+03
 1.350200037E+03	 2.169333252E+03
 1.350734801E+03	 2.178000000E+03
 1.351269509E+03	 2.158333252E+03
 1.351804162E+03	 2.167333252E+03
 1.352338758E+03	 2.126000000E+03
 1.352873300E+03	 2.151000000E+03
 1.353407785E+03	 2.145000000E+03
 1.353942215E+03	 2.149333252E+03
 1.354476589E+03	 2.134666748E+03
 1.355010908E+03	 2.156000000E+03
 1.355545171E+03	 2.137333252E+03
 1.356079379E+03	 2.140666748E+03
 1.356613530E+03	 2.171000000E+03
 1.357147627E+03	 2.140000000E+03
 1.357681667E+03	 2.144333252E+03
 1.358215652E+03	 2.157666748E+03
 1.358749582E+03	 2.128000000E+03
 1.359283456E+03	 2.151333252E+03
 1.359817274E+03	 2.148666748E+03
 1.360351037E+03	 2.137000000E+03
 1.360884744E+03	 2.131000000E+03
 1.361418395E+03	 2.154333252E+03
 1.361951991E+03	 2.134333252E+03
 1.362485531E+03	 2.137666748E+03
 1.363019016E+03	 2.155000000E+03
 1.363552445E+03	 2.127000000E+03
 1.364085819E+03	 2.131000000E+03
 1.364619137E+03	 2.143333252E+03
 1.365152400E+03	 2.153333252E+03
 1.365685607E+03	 2.119666748E+03
 1.366218758E+03	 2.170666748E+03
 1.366751854E+03	 2.136666748E+03
 1.367284894E+03	 2.128333252E+03
 1.367817879E+03	 2.130666748E+03
 1.368350808E+03	 2.143333252E+03
 1.368883682E+03	 2.142666748E+03
 1.369416500E+03	 2.137666748E+03
 1.369949263E+03	 2.153333252E+03
 1.370481970E+03	 2.122333252E+03
 1.371014622E+03	 2.146333252E+03
 1.371547218E+03	 2.123666748E+03
 1.372079758E+03	 2.138333252E+03
 1.372612244E+03	 2.088333252E+03
 1.373144673E+03	 2.143333252E+03
 1.373677047E+03	 2.118000000E+03
 1.374209366E+03	 2.123666748E+03
 1.374741629E+03	 2.099666748E+03
 1.375273836E+03	 2.135666748E+03
 1.375805989E+03	 2.113666748E+03
 1.376338085E+03	 2.132666748E+03
 1.376870126E+03	 2.111666748E+03
 1.377402112E+03	 2.103666748E+03
 1.377934042E+03	 2.146666748E+03
 1.378465917E+03	 2.097666748E+03
 1.378997736E+03	 2.108666748E+03
 1.379529500E+03	 2.113000000E+03
 1.380061208E+03	 2.146333252E+03
 1.380592861E+03	 2.098000000E+03
 1.381124459E+03	 2.106333252E+03
 1.381656000E+03	 2.112333252E+03
 1.382187487E+03	 2.111666748E+03
 1.382718918E+03	 2.097333252E+03
 1.383250294E+03	 2.127333252E+03
 1.383781614E+03	 2.096666748E+03
 1.384312879E+03	 2.115666748E+03
 1.384844088E+03	 2.105666748E+03
 1.385375242E+03	 2.131666748E+03
 1.385906340E+03	 2.089333252E+03
 1.386437383E+03	 2.134666748E+03
 1.386968371E+03	 2.180000000E+03
 1.387499303E+03	 2.211333252E+03
 1.388030180E+03	 2.389333252E+03
 1.388561001E+03	 3.252333252E+03
 1.389091767E+03	 4.008666748E+03
 1.389622478E+03	 2.763000000E+03
 1.390153133E+03	 2.260333252E+03
 1.390683733E+03	 2.144000000E+03
 1.391214277E+03	 2.137333252E+03
 1.391744766E+03	 2.102333252E+03
 1.392275200E+03	 2.115000000E+03
 1.392805578E+03	 2.075333252E+03
 1.393335901E+03	 2.129000000E+03
 1.393866168E+03	 2.081000000E+03
 1.394396381E+03	 2.126000000E+03
 1.394926537E+03	 2.094000000E+03
 1.395456639E+03	 2.089000000E+03
 1.395986685E+03	 2.067333252E+03
 1.396516675E+03	 2.098666748E+03
 1.397046611E+03	 2.076666748E+03
 1.397576491E+03	 2.080666748E+03
 1.398106315E+03	 2.104666748E+03
 1.398636084E+03	 2.087000000E+03
 1.399165798E+03	 2.083000000E+03
 1.399695457E+03	 2.095666748E+03
 1.400225060E+03	 2.078333252E+03
 1.400754608E+03	 2.066666748E+03
 1.401284101E+03	 2.067333252E+03
 1.401813538E+03	 2.090333252E+03
 1.402342920E+03	 2.091333252E+03
 1.402872247E+03	 2.087666748E+03
 1.403401518E+03	 2.083000000E+03
 1.403930734E+03	 2.073333252E+03
 1.404459895E+03	 2.085666748E+03
 1.404989000E+03	 2.093333252E+03
 1.405518050E+03	 2.090000000E+03
 1.406047045E+03	 2.079000000E+03
 1.406575984E+03	 2.068666748E+03
 1.407104869E+03	 2.110666748E+03
 1.407633697E+03	 2.086000000E+03
 1.408162471E+03	 2.089333252E+03
 1.408691189E+03	 2.086000000E+03
 1.409219852E+03	 2.112333252E+03
 1.409748460E+03	 2.155000000E+03
 1.410277013E+03	 2.218666748E+03
 1.410805510E+03	 2.174666748E+03
 1.411333952E+03	 2.110666748E+03
 1.411862339E+03	 2.083000000E+03
 1.412390670E+03	 2.070666748E+03
 1.412918946E+03	 2.050666748E+03
 1.413447167E+03	 2.064666748E+03
 1.413975333E+03	 2.057333252E+03
 1.414503444E+03	 2.089000000E+03
 1.415031499E+03	 2.091000000E+03
 1.415559499E+03	 2.068666748E+03
 1.416087444E+03	 2.086666748E+03
 1.416615333E+03	 2.041000000E+03
 1.417143167E+03	 2.067000000E+03
 1.417670947E+03	 2.070333252E+03
 1.418198670E+03	 2.076666748E+03
 1.418726339E+03	 2.061666748E+03
 1.419253952E+03	 2.084333252E+03
 1.419781511E+03	 2.051000000E+03
 1.420309014E+03	 2.073333252E+03
 1.420836461E+03	 2.038333374E+03
 1.421363854E+03	 2.066666748E+03
 1.421891191E+03	 2.073333252E+03
 1.422418474E+03	 2.030000000E+03
 1.422945701E+03	 2.044666626E+03
 1.423472872E+03	 2.050000000E+03
 1.423999989E+03	 2.044666626E+03
 1.424527050E+03	 2.064000000E+03
 1.425054057E+03	 2.078666748E+03
 1.425581008E+03	 2.049666748E+03
 1.426107904E+03	 2.037333374E+03
 1.426634745E+03	 2.069000000E+03
 1.427161530E+03	 2.081000000E+03
 1.427688261E+03	 2.045666626E+03
 1.428214936E+03	 2.054000000E+03
 1.428741556E+03	 2.047666626E+03
 1.429268121E+03	 2.062000000E+03
 1.429794631E+03	 2.012666626E+03
 1.430321085E+03	 2.042666626E+03
 1.430847485E+03	 2.035666626E+03
 1.431373829E+03	 2.036333374E+03
 1.431900118E+03	 2.065666748E+03
 1.432426353E+03	 2.052666748E+03
 1.432952532E+03	 2.041000000E+03
 1.433478655E+03	 2.033333374E+03
 1.434004724E+03	 2.061000000E+03
 1.434530738E+03	 2.046000000E+03
 1.435056696E+03	 2.036666626E+03
 1.435582600E+03	 2.029666626E+03
 1.436108448E+03	 2.064000000E+03
 1.436634241E+03	 2.038000000E+03
 1.437159979E+03	 2.047333374E+03
 1.437685662E+03	 2.047000000E+03
 1.438211290E+03	 2.024666626E+03
 1.438736863E+03	 2.051666748E+03
 1.439262381E+03	 2.020333374E+03
 1.439787843E+03	 2.044666626E+03
 1.440313251E+03	 2.029333374E+03
 1.440838603E+03	 2.012666626E+03
 1.441363900E+03	 2.035000000E+03
 1.441889143E+03	 1.997333374E+03
 1.442414330E+03	 2.018333374E+03
 1.442939462E+03	 2.040333374E+03
 1.443464539E+03	 2.042333374E+03
 1.443989561E+03	 2.031666626E+03
 1.444514528E+03	 2.035333374E+03
 1.445039440E+03	 2.035000000E+03
 1.445564297E+03	 2.009333374E+03
 1.446089099E+03	 2.040000000E+03
 1.446613846E+03	 2.029666626E+03
 1.447138537E+03	 2.034666626E+03
 1.447663174E+03	 2.025000000E+03
 1.448187756E+03	 2.030333374E+03
 1.448712282E+03	 2.062666748E+03
 1.449236754E+03	 2.017000000E+03
 1.449761171E+03	 2.035333374E+03
 1.450285532E+03	 2.012333374E+03
 1.450809839E+03	 1.995666626E+03
 1.451334090E+03	 2.021666626E+03
 1.451858287E+03	 2.020000000E+03
 1.452382428E+03	 2.005333374E+03
 1.452906515E+03	 2.002333374E+03
 1.453430546E+03	 2.001000000E+03
 1.453954523E+03	 1.996666626E+03
 1.454478444E+03	 2.032333374E+03
 1.455002311E+03	 2.013000000E+03
 1.455526123E+03	 1.995333374E+03
 1.456049879E+03	 1.982333374E+03
 1.456573581E+03	 2.018666626E+03
 1.457097227E+03	 2.002333374E+03
 1.457620819E+03	 2.010000000E+03
 1.458144356E+03	 1.998666626E+03
 1.458667837E+03	 1.998333374E+03
 1.459191264E+03	 1.996000000E+03
 1.459714636E+03	 2.002333374E+03
 1.460237952E+03	 2.009000000E+03
 1.460761214E+03	 2.006000000E+03
 1.461284421E+03	 1.995333374E+03
 1.461807573E+03	 2.004333374E+03
 1.462330670E+03	 1.998000000E+03
 1.462853712E+03	 1.974666626E+03
 1.463376699E+03	 1.998000000E+03
 1.463899632E+03	 2.005333374E+03
 1.464422509E+03	 1.981333374E+03
 1.464945331E+03	 1.989000000E+03
 1.465468099E+03	 1.988000000E+03
 1.465990811E+03	 1.978000000E+03
 1.466513469E+03	 1.975666626E+03
 1.467036071E+03	 1.990333374E+03
 1.467558619E+03	 1.979000000E+03
 1.468081112E+03	 2.022333374E+03
 1.468603550E+03	 2.014000000E+03
 1.469125933E+03	 1.991333374E+03
 1.469648261E+03	 1.972000000E+03
 1.470170534E+03	 2.001666626E+03
 1.470692752E+03	 2.001666626E+03
 1.471214916E+03	 1.977333374E+03
 1.471737024E+03	 1.980333374E+03
 1.472259078E+03	 1.982333374E+03
 1.472781077E+03	 1.989000000E+03
 1.473303021E+03	 1.968666626E+03
 1.473824910E+03	 1.959333374E+03
 1.474346744E+03	 1.980000000E+03
 1.474868523E+03	 1.968666626E+03
 1.475390248E+03	 1.947000000E+03
 1.475911917E+03	 1.966000000E+03
 1.476433532E+03	 1.978000000E+03
 1.476955092E+03	 1.973666626E+03
 1.477476597E+03	 1.962333374E+03
 1.477998047E+03	 1.998666626E+03
 1.478519442E+03	 1.954333374E+03
 1.479040783E+03	 1.990333374E+03
 1.479562068E+03	 1.963000000E+03
 1.480083299E+03	 1.971000000E+03
 1.480604475E+03	 1.965666626E+03
 1.481125596E+03	 1.977000000E+03
 1.481646663E+03	 1.962333374E+03
 1.482167674E+03	 1.958333374E+03
 1.482688631E+03	 1.946000000E+03
 1.483209533E+03	 1.964000000E+03
 1.483730380E+03	 1.967666626E+03
 1.484251172E+03	 1.964333374E+03
 1.484771909E+03	 1.966333374E+03
 1.485292592E+03	 1.958666626E+03
 1.485813220E+03	 1.932666626E+03
 1.486333793E+03	 1.958000000E+03
 1.486854311E+03	 1.952333374E+03
 1.487374775E+03	 1.942666626E+03
 1.487895183E+03	 1.955000000E+03
 1.488415537E+03	 1.959000000E+03
 1.488935836E+03	 1.948666626E+03
 1.489456081E+03	 1.922000000E+03
 1.489976270E+03	 1.969000000E+03
 1.490496405E+03	 1.970666626E+03
 1.491016485E+03	 1.962666626E+03
 1.491536511E+03	 1.977333374E+03
 1.492056481E+03	 1.940333374E+03
 1.492576397E+03	 1.943666626E+03
 1.493096258E+03	 1.959666626E+03
 1.493616064E+03	 1.953333374E+03
 1.494135816E+03	 1.959666626E+03
 1.494655513E+03	 1.940000000E+03
 1.495175155E+03	 1.944666626E+03
 1.495694742E+03	 1.965333374E+03
 1.496214274E+03	 1.915333374E+03
 1.496733752E+03	 1.940666626E+03
 1.497253175E+03	 1.919333374E+03
 1.497772544E+03	 1.947333374E+03
 1.498291858E+03	 1.952000000E+03
 1.498811116E+03	 1.920333374E+03
 1.499330321E+03	 1.939333374E+03
 1.499849470E+03	 1.941000000E+03
 1.500368565E+03	 1.920333374E+03
 1.500887605E+03	 1.921000000E+03
 1.501406591E+03	 1.944000000E+03
 1.501925521E+03	 1.956333374E+03
 1.502444397E+03	 1.923333374E+03
 1.502963219E+03	 1.928000000E+03
 1.503481985E+03	 1.923666626E+03
 1.504000697E+03	 1.954666626E+03
 1.504519355E+03	 1.923333374E+03
 1.505037957E+03	 1.937666626E+03
 1.505556505E+03	 1.935333374E+03
 1.506074999E+03	 1.922666626E+03
 1.506593437E+03	 1.923000000E+03
 1.507111821E+03	 1.927333374E+03
 1.507630150E+03	 1.899000000E+03
 1.508148425E+03	 1.942000000E+03
 1.508666645E+03	 1.939666626E+03
 1.509184810E+03	 1.926666626E+03
 1.509702921E+03	 1.916333374E+03
 1.510220977E+03	 1.931000000E+03
 1.510738979E+03	 1.933666626E+03
 1.511256925E+03	 1.924666626E+03
 1.511774817E+03	 1.912000000E+03
 1.512292655E+03	 1.922666626E+03
 1.512810438E+03	 1.912666626E+03
 1.513328166E+03	 1.907333374E+03
 1.513845840E+03	 1.946333374E+03
 1.514363459E+03	 1.920333374E+03
 1.514881023E+03	 1.912333374E+03
 1.515398533E+03	 1.928000000E+03
 1.515915988E+03	 1.926666626E+03
 1.516433389E+03	 1.910333374E+03
 1.516950734E+03	 1.920666626E+03
 1.517468026E+03	 1.899666626E+03
 1.517985263E+03	 1.919666626E+03
 1.518502445E+03	 1.908000000E+03
 1.519019572E+03	 1.926000000E+03
 1.519536645E+03	 1.905666626E+03
 1.520053664E+03	 1.911333374E+03
 1.520570628E+03	 1.920000000E+03
 1.521087537E+03	 1.901666626E+03
 1.521604392E+03	 1.921000000E+03
 1.522121192E+03	 1.922000000E+03
 1.522637937E+03	 1.934666626E+03
 1.523154628E+03	 1.900333374E+03
 1.523671265E+03	 1.910666626E+03
 1.524187847E+03	 1.915000000E+03
 1.524704374E+03	 1.906000000E+03
 1.525220847E+03	 1.921333374E+03
 1.525737265E+03	 1.890333374E+03
 1.526253629E+03	 1.918000000E+03
 1.526769938E+03	 1.887000000E+03
 1.527286192E+03	 1.912333374E+03
 1.527802392E+03	 1.890333374E+03
 1.528318538E+03	 1.931333374E+03
 1.528834629E+03	 1.902666626E+03
 1.529350666E+03	 1.904333374E+03
 1.529866648E+03	 1.892000000E+03
 1.530382575E+03	 1.912333374E+03
 1.530898448E+03	 1.896666626E+03
 1.531414266E+03	 1.934666626E+03
 1.531930030E+03	 1.889000000E+03
 1.532445740E+03	 1.908666626E+03
 1.532961395E+03	 1.888000000E+03
 1.533476995E+03	 1.879666626E+03
 1.533992541E+03	 1.900000000E+03
 1.534508033E+03	 1.908000000E+03
 1.535023470E+03	 1.889000000E+03
 1.535538852E+03	 1.884666626E+03
 1.536054180E+03	 1.885000000E+03
 1.536569454E+03	 1.903333374E+03
 1.537084673E+03	 1.895000000E+03
 1.537599837E+03	 1.899000000E+03
 1.538114947E+03	 1.899000000E+03
 1.538630003E+03	 1.899333374E+03
 1.539145004E+03	 1.895666626E+03
 1.539659951E+03	 1.869000000E+03
 1.540174843E+03	 1.899333374E+03
 1.540689681E+03	 1.882666626E+03
 1.541204465E+03	 1.871000000E+03
 1.541719194E+03	 1.888000000E+03
 1.542233868E+03	 1.901333374E+03
 1.542748488E+03	 1.905000000E+03
 1.543263054E+03	 1.898333374E+03
 1.543777565E+03	 1.865000000E+03
 1.544292022E+03	 1.884333374E+03
 1.544806424E+03	 1.901000000E+03
 1.545320772E+03	 1.882000000E+03
 1.545835066E+03	 1.864000000E+03
 1.546349305E+03	 1.885333374E+03
 1.546863489E+03	 1.904333374E+03
 1.547377620E+03	 1.891333374E+03
 1.547891696E+03	 1.889000000E+03
 1.548405717E+03	 1.893000000E+03
 1.548919684E+03	 1.861666626E+03
 1.549433597E+03	 1.883000000E+03
 1.549947455E+03	 1.901333374E+03
 1.550461259E+03	 1.882333374E+03
 1.550975009E+03	 1.870333374E+03
 1.551488704E+03	 1.890000000E+03
 1.552002345E+03	 1.873333374E+03
 1.552515931E+03	 1.870666626E+03
 1.553029463E+03	 1.902333374E+03
 1.553542941E+03	 1.886000000E+03
 1.554056364E+03	 1.886000000E+03
 1.554569733E+03	 1.897000000E+03
 1.555083048E+03	 1.890000000E+03
 1.555596308E+03	 1.864000000E+03
 1.556109514E+03	 1.854000000E+03
 1.556622665E+03	 1.876333374E+03
 1.557135762E+03	 1.883000000E+03
 1.557648805E+03	 1.873000000E+03
 1.558161794E+03	 1.894666626E+03
 1.558674728E+03	 1.897333374E+03
 1.559187608E+03	 1.853000000E+03
 1.559700433E+03	 1.876666626E+03
 1.560213205E+03	 1.886666626E+03
 1.560725921E+03	 1.871000000E+03
 1.561238584E+03	 1.869333374E+03
 1.561751192E+03	 1.875000000E+03
 1.562263746E+03	 1.895000000E+03
 1.562776246E+03	 1.871666626E+03
 1.563288691E+03	 1.898000000E+03
 1.563801082E+03	 1.856333374E+03
 1.564313419E+03	 1.877666626E+03
 1.564825701E+03	 1.863333374E+03
 1.565337929E+03	 1.875000000E+03
 1.565850103E+03	 1.886000000E+03
 1.566362223E+03	 1.873666626E+03
 1.566874288E+03	 1.881666626E+03
 1.567386299E+03	 1.860000000E+03
 1.567898256E+03	 1.874666626E+03
 1.568410158E+03	 1.904333374E+03
 1.568922007E+03	 1.858000000E+03
 1.569433800E+03	 1.862333374E+03
 1.569945540E+03	 1.865000000E+03
 1.570457226E+03	 1.871333374E+03
 1.570968857E+03	 1.889000000E+03
 1.571480434E+03	 1.873333374E+03
 1.571991956E+03	 1.874666626E+03
 1.572503425E+03	 1.830333374E+03
 1.573014839E+03	 1.873333374E+03
 1.573526199E+03	 1.867666626E+03
 1.574037505E+03	 1.855666626E+03
 1.574548756E+03	 1.843333374E+03
 1.575059953E+03	 1.887000000E+03
 1.575571096E+03	 1.863000000E+03
 1.576082185E+03	 1.856666626E+03
 1.576593220E+03	 1.881000000E+03
 1.577104200E+03	 1.849666626E+03
 1.577615126E+03	 1.864333374E+03
 1.578125998E+03	 1.883333374E+03
 1.578636816E+03	 1.852000000E+03
 1.579147580E+03	 1.862666626E+03
 1.579658289E+03	 1.849000000E+03
 1.580168944E+03	 1.847666626E+03
 1.580679545E+03	 1.857333374E+03
 1.581190092E+03	 1.847000000E+03
 1.581700585E+03	 1.831666626E+03
 1.582211023E+03	 1.862666626E+03
 1.582721407E+03	 1.835666626E+03
 1.583231737E+03	 1.850333374E+03
 1.583742013E+03	 1.850333374E+03
 1.584252235E+03	 1.854333374E+03
 1.584762403E+03	 1.861000000E+03
 1.585272516E+03	 1.851000000E+03
 1.585782575E+03	 1.856333374E+03
 1.586292581E+03	 1.837333374E+03
 1.586802532E+03	 1.848333374E+03
 1.587312428E+03	 1.827666626E+03
 1.587822271E+03	 1.842666626E+03
 1.588332060E+03	 1.846333374E+03
 1.588841794E+03	 1.859000000E+03
 1.589351474E+03	 1.851666626E+03
 1.589861100E+03	 1.845000000E+03
 1.590370672E+03	 1.840000000E+03
 1.590880190E+03	 1.839333374E+03
 1.591389654E+03	 1.848666626E+03
 1.591899064E+03	 1.825333374E+03
 1.592408419E+03	 1.830000000E+03
