 1.042452273E+03	 2.874833398E+04
 1.043018714E+03	 2.870566602E+04
 1.043585098E+03	 2.865600000E+04
 1.044151424E+03	 2.870433398E+04
 1.044717692E+03	 2.861033398E+04
 1.045283903E+03	 2.869333398E+04
 1.045850056E+03	 2.857000000E+04
 1.046416151E+03	 2.869866602E+04
 1.046982188E+03	 2.854466602E+04
 1.047548167E+03	 2.869700000E+04
 1.048114089E+03	 2.858900000E+04
 1.048679953E+03	 2.861466602E+04
 1.049245760E+03	 2.860333398E+04
 1.049811509E+03	 2.864566602E+04
 1.050377200E+03	 2.855400000E+04
 1.050942833E+03	 2.862700000E+04
 1.051508408E+03	 2.842733398E+04
 1.052073926E+03	 2.836133398E+04
 1.052639387E+03	 2.857400000E+04
 1.053204789E+03	 2.844366602E+04
 1.053770134E+03	 2.844733398E+04
 1.054335421E+03	 2.851533398E+04
 1.054900651E+03	 2.850100000E+04
 1.055465823E+03	 2.834333398E+04
 1.056030937E+03	 2.838533398E+04
 1.056595993E+03	 2.848533398E+04
 1.057160992E+03	 2.840800000E+04
 1.057725934E+03	 2.833566602E+04
 1.058290817E+03	 2.818133398E+04
 1.058855643E+03	 2.823733398E+04
 1.059420411E+03	 2.822600000E+04
 1.059985122E+03	 2.816700000E+04
 1.060549775E+03	 2.831733398E+04
 1.061114371E+03	 2.819500000E+04
 1.061678908E+03	 2.828000000E+04
 1.062243389E+03	 2.822766602E+04
 1.062807811E+03	 2.819900000E+04
 1.063372176E+03	 2.819800000E+04
 1.063936483E+03	 2.809066602E+04
 1.064500733E+03	 2.802166602E+04
 1.065064925E+03	 2.818700000E+04
 1.065629060E+03	 2.797800000E+04
 1.066193137E+03	 2.798100000E+04
 1.066757156E+03	 2.810266602E+04
 1.067321118E+03	 2.810100000E+04
 1.067885022E+03	 2.789766602E+04
 1.068448869E+03	 2.804600000E+04
 1.069012658E+03	 2.788666602E+04
 1.069576390E+03	 2.801600000E+04
 1.070140063E+03	 2.788733398E+04
 1.070703680E+03	 2.788200000E+04
 1.071267239E+03	 2.788200000E+04
 1.071830740E+03	 2.793733398E+04
 1.072394184E+03	 2.770033398E+04
 1.072957570E+03	 2.792500000E+04
 1.073520899E+03	 2.771100000E+04
 1.074084170E+03	 2.788733398E+04
 1.074647383E+03	 2.763400000E+04
 1.075210540E+03	 2.776866602E+04
 1.075773638E+03	 2.754333398E+04
 1.076336679E+03	 2.773933398E+04
 1.076899663E+03	 2.742900000E+04
 1.077462589E+03	 2.762400000E+04
 1.078025457E+03	 2.748900000E+04
 1.078588268E+03	 2.764300000E+04
 1.079151022E+03	 2.750600000E+04
 1.079713718E+03	 2.759866602E+04
 1.080276356E+03	 2.741900000E+04
 1.080838937E+03	 2.749366602E+04
 1.081401461E+03	 2.727200000E+04
 1.081963927E+03	 2.752833398E+04
 1.082526336E+03	 2.734466602E+04
 1.083088687E+03	 2.744600000E+04
 1.083650981E+03	 2.719233398E+04
 1.084213217E+03	 2.735333398E+04
 1.084775396E+03	 2.713700000E+04
 1.085337517E+03	 2.725333398E+04
 1.085899581E+03	 2.708633398E+04
 1.086461587E+03	 2.731733398E+04
 1.087023536E+03	 2.702700000E+04
 1.087585428E+03	 2.725000000E+04
 1.088147262E+03	 2.691500000E+04
 1.088709039E+03	 2.713333398E+04
 1.089270758E+03	 2.701166602E+04
 1.089832420E+03	 2.716600000E+04
 1.090394024E+03	 2.690100000E+04
 1.090955571E+03	 2.708433398E+04
 1.091517061E+03	 2.675433398E+04
 1.092078493E+03	 2.690200000E+04
 1.092639868E+03	 2.668700000E+04
 1.093201185E+03	 2.693833398E+04
 1.093762445E+03	 2.672866602E+04
 1.094323648E+03	 2.691366602E+04
 1.094884793E+03	 2.666500000E+04
 1.095445881E+03	 2.691566602E+04
 1.096006911E+03	 2.650033398E+04
 1.096567884E+03	 2.680766602E+04
 1.097128800E+03	 2.640566602E+04
 1.097689659E+03	 2.674733398E+04
 1.098250460E+03	 2.655933398E+04
 1.098811203E+03	 2.677466602E+04
 1.099371890E+03	 2.652466602E+04
 1.099932518E+03	 2.663766602E+04
 1.100493090E+03	 2.632233398E+04
 1.101053604E+03	 2.649466602E+04
 1.101614061E+03	 2.623100000E+04
 1.102174461E+03	 2.646866602E+04
 1.102734803E+03	 2.613366602E+04
 1.103295088E+03	 2.654366602E+04
 1.103855316E+03	 2.615166602E+04
 1.104415486E+03	 2.640933398E+04
 1.104975599E+03	 2.608833398E+04
 1.105535655E+03	 2.621700000E+04
 1.106095653E+03	 2.606733398E+04
 1.106655594E+03	 2.616233398E+04
 1.107215478E+03	 2.605766602E+04
 1.107775305E+03	 2.624166602E+04
 1.108335074E+03	 2.592866602E+04
 1.108894786E+03	 2.612200000E+04
 1.109454440E+03	 2.570800000E+04
 1.110014038E+03	 2.607533398E+04
 1.110573578E+03	 2.576166602E+04
 1.111133061E+03	 2.605833398E+04
 1.111692486E+03	 2.578200000E+04
 1.112251854E+03	 2.607233398E+04
 1.112811165E+03	 2.574333398E+04
 1.113370419E+03	 2.604966602E+04
 1.113929616E+03	 2.571800000E+04
 1.114488755E+03	 2.590166602E+04
 1.115047837E+03	 2.569133398E+04
 1.115606862E+03	 2.594533398E+04
 1.116165830E+03	 2.561066602E+04
 1.116724740E+03	 2.587900000E+04
 1.117283593E+03	 2.556066602E+04
 1.117842389E+03	 2.583933398E+04
 1.118401128E+03	 2.552533398E+04
 1.118959809E+03	 2.578266602E+04
 1.119518433E+03	 2.559300000E+04
 1.120077000E+03	 2.578766602E+04
 1.120635510E+03	 2.543266602E+04
 1.121193963E+03	 2.561100000E+04
 1.121752358E+03	 2.545366602E+04
 1.122310697E+03	 2.572233398E+04
 1.122868978E+03	 2.542700000E+04
 1.123427202E+03	 2.569300000E+04
 1.123985368E+03	 2.534966602E+04
 1.124543478E+03	 2.556733398E+04
 1.125101530E+03	 2.539600000E+04
 1.125659526E+03	 2.556266602E+04
 1.126217464E+03	 2.534400000E+04
 1.126775345E+03	 2.543333398E+04
 1.127333168E+03	 2.533900000E+04
 1.127890935E+03	 2.547166602E+04
 1.128448644E+03	 2.540566602E+04
 1.129006297E+03	 2.544833398E+04
 1.129563892E+03	 2.523333398E+04
 1.130121430E+03	 2.538466602E+04
 1.130678911E+03	 2.528300000E+04
 1.131236335E+03	 2.533966602E+04
 1.131793701E+03	 2.528200000E+04
 1.132351011E+03	 2.528500000E+04
 1.132908263E+03	 2.532366602E+04
 1.133465458E+03	 2.531533398E+04
 1.134022597E+03	 2.527200000E+04
 1.134579678E+03	 2.531533398E+04
 1.135136702E+03	 2.529000000E+04
 1.135693669E+03	 2.538800000E+04
 1.136250578E+03	 2.522033398E+04
 1.136807431E+03	 2.531933398E+04
 1.137364227E+03	 2.537133398E+04
 1.137920965E+03	 2.530200000E+04
 1.138477647E+03	 2.532400000E+04
 1.139034271E+03	 2.506333398E+04
 1.139590839E+03	 2.517566602E+04
 1.140147349E+03	 2.511600000E+04
 1.140703802E+03	 2.523300000E+04
 1.141260198E+03	 2.511400000E+04
 1.141816537E+03	 2.524800000E+04
 1.142372820E+03	 2.511533398E+04
 1.142929045E+03	 2.526466602E+04
 1.143485213E+03	 2.514500000E+04
 1.144041323E+03	 2.514100000E+04
 1.144597377E+03	 2.502266602E+04
 1.145153374E+03	 2.533733398E+04
 1.145709314E+03	 2.500900000E+04
 1.146265197E+03	 2.524533398E+04
 1.146821023E+03	 2.517333398E+04
 1.147376792E+03	 2.527633398E+04
 1.147932503E+03	 2.518200000E+04
 1.148488158E+03	 2.526733398E+04
 1.149043756E+03	 2.519866602E+04
 1.149599297E+03	 2.522800000E+04
 1.150154781E+03	 2.501800000E+04
 1.150710207E+03	 2.519100000E+04
 1.151265577E+03	 2.514066602E+04
 1.151820890E+03	 2.535600000E+04
 1.152376146E+03	 2.515666602E+04
 1.152931345E+03	 2.520466602E+04
 1.153486487E+03	 2.503566602E+04
 1.154041572E+03	 2.514233398E+04
 1.154596600E+03	 2.496366602E+04
 1.155151571E+03	 2.519666602E+04
 1.155706485E+03	 2.500600000E+04
 1.156261342E+03	 2.513200000E+04
 1.156816142E+03	 2.508100000E+04
 1.157370885E+03	 2.502300000E+04
 1.157925572E+03	 2.494466602E+04
 1.158480201E+03	 2.507100000E+04
 1.159034774E+03	 2.503033398E+04
 1.159589289E+03	 2.515533398E+04
 1.160143748E+03	 2.484400000E+04
 1.160698149E+03	 2.502366602E+04
 1.161252494E+03	 2.485166602E+04
 1.161806782E+03	 2.504366602E+04
 1.162361013E+03	 2.497866602E+04
 1.162915187E+03	 2.506666602E+04
 1.163469304E+03	 2.486766602E+04
 1.164023364E+03	 2.493433398E+04
 1.164577368E+03	 2.492133398E+04
 1.165131314E+03	 2.503133398E+04
 1.165685204E+03	 2.491033398E+04
 1.166239036E+03	 2.501733398E+04
 1.166792812E+03	 2.485800000E+04
 1.167346531E+03	 2.489033398E+04
 1.167900193E+03	 2.478833398E+04
 1.168453798E+03	 2.478233398E+04
 1.169007347E+03	 2.475333398E+04
 1.169560838E+03	 2.492066602E+04
 1.170114273E+03	 2.478066602E+04
 1.170667650E+03	 2.492433398E+04
 1.171220971E+03	 2.471366602E+04
 1.171774235E+03	 2.489533398E+04
 1.172327443E+03	 2.470900000E+04
 1.172880593E+03	 2.482266602E+04
 1.173433687E+03	 2.472033398E+04
 1.173986723E+03	 2.480533398E+04
 1.174539703E+03	 2.469600000E+04
 1.175092626E+03	 2.478533398E+04
 1.175645493E+03	 2.480266602E+04
 1.176198302E+03	 2.465833398E+04
 1.176751055E+03	 2.461700000E+04
 1.177303751E+03	 2.463933398E+04
 1.177856390E+03	 2.471600000E+04
 1.178408972E+03	 2.468000000E+04
 1.178961498E+03	 2.482000000E+04
 1.179513966E+03	 2.455566602E+04
 1.180066378E+03	 2.458266602E+04
 1.180618733E+03	 2.447566602E+04
 1.181171032E+03	 2.468100000E+04
 1.181723273E+03	 2.444500000E+04
 1.182275458E+03	 2.464300000E+04
 1.182827586E+03	 2.445300000E+04
 1.183379657E+03	 2.453200000E+04
 1.183931672E+03	 2.453066602E+04
 1.184483630E+03	 2.450166602E+04
 1.185035531E+03	 2.449633398E+04
 1.185587375E+03	 2.448166602E+04
 1.186139162E+03	 2.441333398E+04
 1.186690893E+03	 2.444133398E+04
 1.187242567E+03	 2.429800000E+04
 1.187794184E+03	 2.450000000E+04
 1.188345745E+03	 2.435933398E+04
 1.188897249E+03	 2.450600000E+04
 1.189448696E+03	 2.439666602E+04
 1.190000086E+03	 2.459633398E+04
 1.190551420E+03	 2.420233398E+04
 1.191102697E+03	 2.425100000E+04
 1.191653918E+03	 2.432100000E+04
 1.192205081E+03	 2.440066602E+04
 1.192756188E+03	 2.424366602E+04
 1.193307238E+03	 2.438000000E+04
 1.193858232E+03	 2.419966602E+04
 1.194409169E+03	 2.421166602E+04
 1.194960049E+03	 2.412866602E+04
 1.195510872E+03	 2.419433398E+04
 1.196061639E+03	 2.418800000E+04
 1.196612349E+03	 2.424800000E+04
 1.197163003E+03	 2.414833398E+04
 1.197713599E+03	 2.419133398E+04
 1.198264139E+03	 2.411800000E+04
 1.198814623E+03	 2.409800000E+04
 1.199365050E+03	 2.402500000E+04
 1.199915420E+03	 2.405800000E+04
 1.200465734E+03	 2.399866602E+04
 1.201015990E+03	 2.402500000E+04
 1.201566191E+03	 2.398266602E+04
 1.202116334E+03	 2.409133398E+04
 1.202666421E+03	 2.398200000E+04
 1.203216452E+03	 2.390333398E+04
 1.203766425E+03	 2.402500000E+04
 1.204316343E+03	 2.390800000E+04
 1.204866203E+03	 2.387633398E+04
 1.205416007E+03	 2.387200000E+04
 1.205965754E+03	 2.380833398E+04
 1.206515445E+03	 2.386666602E+04
 1.207065079E+03	 2.378166602E+04
 1.207614657E+03	 2.374533398E+04
 1.208164177E+03	 2.370233398E+04
 1.208713642E+03	 2.374866602E+04
 1.209263050E+03	 2.385733398E+04
 1.209812401E+03	 2.359700000E+04
 1.210361695E+03	 2.370833398E+04
 1.210910933E+03	 2.371666602E+04
 1.211460115E+03	 2.367366602E+04
 1.212009240E+03	 2.374633398E+04
 1.212558308E+03	 2.365133398E+04
 1.213107320E+03	 2.363833398E+04
 1.213656275E+03	 2.365033398E+04
 1.214205174E+03	 2.361700000E+04
 1.214754016E+03	 2.362666602E+04
 1.215302801E+03	 2.358466602E+04
 1.215851530E+03	 2.362033398E+04
 1.216400203E+03	 2.356833398E+04
 1.216948819E+03	 2.346533398E+04
 1.217497378E+03	 2.348333398E+04
 1.218045881E+03	 2.341566602E+04
 1.218594327E+03	 2.355333398E+04
 1.219142717E+03	 2.335233398E+04
 1.219691051E+03	 2.338566602E+04
 1.220239327E+03	 2.338433398E+04
 1.220787548E+03	 2.330933398E+04
 1.221335712E+03	 2.346166602E+04
 1.221883819E+03	 2.340600000E+04
 1.222431870E+03	 2.338566602E+04
 1.222979864E+03	 2.340866602E+04
 1.223527802E+03	 2.342866602E+04
 1.224075683E+03	 2.339333398E+04
 1.224623508E+03	 2.337666602E+04
 1.225171277E+03	 2.337500000E+04
 1.225718989E+03	 2.322733398E+04
 1.226266644E+03	 2.333733398E+04
 1.226814243E+03	 2.331966602E+04
 1.227361786E+03	 2.330900000E+04
 1.227909272E+03	 2.325900000E+04
 1.228456702E+03	 2.310533398E+04
 1.229004075E+03	 2.326300000E+04
 1.229551392E+03	 2.321200000E+04
 1.230098652E+03	 2.330666602E+04
 1.230645856E+03	 2.316266602E+04
 1.231193003E+03	 2.315666602E+04
 1.231740094E+03	 2.304733398E+04
 1.232287129E+03	 2.317833398E+04
 1.232834107E+03	 2.304066602E+04
 1.233381029E+03	 2.308766602E+04
 1.233927894E+03	 2.304433398E+04
 1.234474703E+03	 2.313700000E+04
 1.235021455E+03	 2.291466602E+04
 1.235568151E+03	 2.304033398E+04
 1.236114791E+03	 2.306700000E+04
 1.236661374E+03	 2.301433398E+04
 1.237207901E+03	 2.298266602E+04
 1.237754372E+03	 2.305466602E+04
 1.238300786E+03	 2.294666602E+04
 1.238847144E+03	 2.302966602E+04
 1.239393445E+03	 2.297633398E+04
 1.239939690E+03	 2.285300000E+04
 1.240485879E+03	 2.293733398E+04
 1.241032011E+03	 2.292766602E+04
 1.241578087E+03	 2.279533398E+04
 1.242124106E+03	 2.283400000E+04
 1.242670070E+03	 2.279700000E+04
 1.243215976E+03	 2.281200000E+04
 1.243761827E+03	 2.283266602E+04
 1.244307621E+03	 2.283500000E+04
 1.244853359E+03	 2.288833398E+04
 1.245399040E+03	 2.272400000E+04
 1.245944665E+03	 2.279300000E+04
 1.246490234E+03	 2.283366602E+04
 1.247035746E+03	 2.276333398E+04
 1.247581203E+03	 2.270966602E+04
 1.248126602E+03	 2.270300000E+04
 1.248671946E+03	 2.271866602E+04
 1.249217233E+03	 2.267100000E+04
 1.249762464E+03	 2.265566602E+04
 1.250307638E+03	 2.262633398E+04
 1.250852757E+03	 2.263700000E+04
 1.251397819E+03	 2.272533398E+04
 1.251942824E+03	 2.278100000E+04
 1.252487774E+03	 2.266000000E+04
 1.253032667E+03	 2.260800000E+04
 1.253577503E+03	 2.265600000E+04
 1.254122284E+03	 2.260133398E+04
 1.254667008E+03	 2.255500000E+04
 1.255211676E+03	 2.249466602E+04
 1.255756288E+03	 2.253466602E+04
 1.256300843E+03	 2.252666602E+04
 1.256845342E+03	 2.249233398E+04
 1.257389785E+03	 2.244133398E+04
 1.257934172E+03	 2.236900000E+04
 1.258478502E+03	 2.254266602E+04
 1.259022776E+03	 2.235500000E+04
 1.259566994E+03	 2.255933398E+04
 1.260111156E+03	 2.234533398E+04
 1.260655261E+03	 2.238666602E+04
 1.261199311E+03	 2.229600000E+04
 1.261743304E+03	 2.235633398E+04
 1.262287240E+03	 2.219600000E+04
 1.262831121E+03	 2.241633398E+04
 1.263374945E+03	 2.236900000E+04
 1.263918713E+03	 2.233133398E+04
 1.264462425E+03	 2.228666602E+04
 1.265006081E+03	 2.232933398E+04
 1.265549680E+03	 2.228366602E+04
 1.266093223E+03	 2.218233398E+04
 1.266636711E+03	 2.213900000E+04
 1.267180141E+03	 2.220366602E+04
 1.267723516E+03	 2.213033398E+04
 1.268266835E+03	 2.226700000E+04
 1.268810097E+03	 2.220533398E+04
 1.269353303E+03	 2.215366602E+04
 1.269896453E+03	 2.211800000E+04
 1.270439547E+03	 2.222733398E+04
 1.270982584E+03	 2.211200000E+04
 1.271525566E+03	 2.210666602E+04
 1.272068491E+03	 2.202833398E+04
 1.272611360E+03	 2.211766602E+04
 1.273154173E+03	 2.209500000E+04
 1.273696930E+03	 2.216133398E+04
 1.274239631E+03	 2.200833398E+04
 1.274782275E+03	 2.199600000E+04
 1.275324864E+03	 2.194566602E+04
 1.275867396E+03	 2.198400000E+04
 1.276409872E+03	 2.189300000E+04
 1.276952292E+03	 2.187733398E+04
 1.277494656E+03	 2.194900000E+04
 1.278036964E+03	 2.193666602E+04
 1.278579215E+03	 2.185133398E+04
 1.279121411E+03	 2.185966602E+04
 1.279663550E+03	 2.184266602E+04
 1.280205634E+03	 2.191133398E+04
 1.280747661E+03	 2.188466602E+04
 1.281289632E+03	 2.177600000E+04
 1.281831547E+03	 2.182533398E+04
 1.282373406E+03	 2.188633398E+04
 1.282915209E+03	 2.186800000E+04
 1.283456955E+03	 2.178366602E+04
 1.283998646E+03	 2.189466602E+04
 1.284540281E+03	 2.202300000E+04
 1.285081859E+03	 2.253566602E+04
 1.285623381E+03	 2.279666602E+04
 1.286164848E+03	 2.225633398E+04
 1.286706258E+03	 2.177766602E+04
 1.287247612E+03	 2.171666602E+04
 1.287788911E+03	 2.156966602E+04
 1.288330153E+03	 2.162433398E+04
 1.288871339E+03	 2.155366602E+04
 1.289412469E+03	 2.170366602E+04
 1.289953543E+03	 2.145933398E+04
 1.290494561E+03	 2.154633398E+04
 1.291035523E+03	 2.153733398E+04
 1.291576428E+03	 2.155533398E+04
 1.292117278E+03	 2.153566602E+04
 1.292658072E+03	 2.145500000E+04
 1.293198810E+03	 2.139700000E+04
 1.293739492E+03	 2.137666602E+04
 1.294280118E+03	 2.137433398E+04
 1.294820687E+03	 2.145866602E+04
 1.295361201E+03	 2.138566602E+04
 1.295901659E+03	 2.128300000E+04
 1.296442061E+03	 2.134033398E+04
 1.296982406E+03	 2.131700000E+04
 1.297522696E+03	 2.140400000E+04
 1.298062930E+03	 2.127933398E+04
 1.298603108E+03	 2.131533398E+04
 1.299143229E+03	 2.121966602E+04
 1.299683295E+03	 2.130066602E+04
 1.300223305E+03	 2.110133398E+04
 1.300763259E+03	 2.126000000E+04
 1.301303157E+03	 2.102633398E+04
 1.301842999E+03	 2.113300000E+04
 1.302382785E+03	 2.106333398E+04
 1.302922515E+03	 2.112400000E+04
 1.303462189E+03	 2.109000000E+04
 1.304001807E+03	 2.107633398E+04
 1.304541369E+03	 2.108033398E+04
 1.305080875E+03	 2.107133398E+04
 1.305620326E+03	 2.113900000E+04
 1.306159720E+03	 2.104100000E+04
 1.306699058E+03	 2.102366602E+04
 1.307238341E+03	 2.100500000E+04
 1.307777567E+03	 2.101200000E+04
 1.308316738E+03	 2.083966602E+04
 1.308855853E+03	 2.090900000E+04
 1.309394912E+03	 2.098266602E+04
 1.309933915E+03	 2.098666602E+04
 1.310472862E+03	 2.091333398E+04
 1.311011753E+03	 2.092500000E+04
 1.311550588E+03	 2.078400000E+04
 1.312089367E+03	 2.101800000E+04
 1.312628090E+03	 2.080266602E+04
 1.313166758E+03	 2.086466602E+04
 1.313705370E+03	 2.081900000E+04
 1.314243925E+03	 2.082433398E+04
 1.314782425E+03	 2.075600000E+04
 1.315320869E+03	 2.072300000E+04
 1.315859257E+03	 2.069133398E+04
 1.316397589E+03	 2.057733398E+04
 1.316935866E+03	 2.075300000E+04
 1.317474086E+03	 2.069766602E+04
 1.318012251E+03	 2.074066602E+04
 1.318550360E+03	 2.061300000E+04
 1.319088413E+03	 2.070300000E+04
 1.319626410E+03	 2.050966602E+04
 1.320164351E+03	 2.055833398E+04
 1.320702236E+03	 2.049866602E+04
 1.321240066E+03	 2.063100000E+04
 1.321777839E+03	 2.047433398E+04
 1.322315557E+03	 2.068300000E+04
 1.322853219E+03	 2.053400000E+04
 1.323390826E+03	 2.061633398E+04
 1.323928376E+03	 2.046600000E+04
 1.324465871E+03	 2.060266602E+04
 1.325003309E+03	 2.044900000E+04
 1.325540692E+03	 2.037466602E+04
 1.326078020E+03	 2.048200000E+04
 1.326615291E+03	 2.041333398E+04
 1.327152506E+03	 2.044566602E+04
 1.327689666E+03	 2.036066602E+04
 1.328226770E+03	 2.035600000E+04
 1.328763818E+03	 2.035666602E+04
 1.329300811E+03	 2.035666602E+04
 1.329837747E+03	 2.033600000E+04
 1.330374628E+03	 2.038200000E+04
 1.330911453E+03	 2.026566602E+04
 1.331448222E+03	 2.038166602E+04
 1.331984936E+03	 2.023733398E+04
 1.332521594E+03	 2.028033398E+04
 1.333058196E+03	 2.014933398E+04
 1.333594742E+03	 2.031166602E+04
 1.334131232E+03	 2.012566602E+04
 1.334667667E+03	 2.026966602E+04
 1.335204046E+03	 2.012133398E+04
 1.335740369E+03	 2.017100000E+04
 1.336276637E+03	 2.014466602E+04
 1.336812848E+03	 2.020033398E+04
 1.337349004E+03	 2.013600000E+04
 1.337885105E+03	 2.029133398E+04
 1.338421149E+03	 2.019966602E+04
 1.338957138E+03	 2.008966602E+04
 1.339493071E+03	 2.004800000E+04
 1.340028949E+03	 1.996133398E+04
 1.340564770E+03	 2.006600000E+04
 1.341100536E+03	 1.998833398E+04
 1.341636246E+03	 2.002533398E+04
 1.342171901E+03	 1.994466602E+04
 1.342707500E+03	 1.999966602E+04
 1.343243043E+03	 1.993633398E+04
 1.343778530E+03	 1.997133398E+04
 1.344313962E+03	 1.981733398E+04
 1.344849338E+03	 1.995433398E+04
 1.345384659E+03	 1.981933398E+04
 1.345919923E+03	 1.992066602E+04
 1.346455133E+03	 1.976800000E+04
 1.346990286E+03	 1.997100000E+04
 1.347525384E+03	 1.978466602E+04
 1.348060426E+03	 1.984900000E+04
 1.348595412E+03	 1.978133398E+04
 1.349130343E+03	 1.968666602E+04
 1.349665218E+03	 1.985700000E+04
 1.350200037E+03	 1.978000000E+04
 1.350734801E+03	 1.984733398E+04
 1.351269509E+03	 1.973466602E+04
 1.351804162E+03	 1.972000000E+04
 1.352338758E+03	 1.974400000E+04
 1.352873300E+03	 1.985233398E+04
 1.353407785E+03	 1.968266602E+04
 1.353942215E+03	 1.965066602E+04
 1.354476589E+03	 1.967366602E+04
 1.355010908E+03	 1.967400000E+04
 1.355545171E+03	 1.959800000E+04
 1.356079379E+03	 1.972866602E+04
 1.356613530E+03	 1.960200000E+04
 1.357147627E+03	 1.946866602E+04
 1.357681667E+03	 1.957133398E+04
 1.358215652E+03	 1.945666602E+04
 1.358749582E+03	 1.953233398E+04
 1.359283456E+03	 1.948000000E+04
 1.359817274E+03	 1.956633398E+04
 1.360351037E+03	 1.951533398E+04
 1.360884744E+03	 1.942466602E+04
 1.361418395E+03	 1.939166602E+04
 1.361951991E+03	 1.944333398E+04
 1.362485531E+03	 1.944666602E+04
 1.363019016E+03	 1.953000000E+04
 1.363552445E+03	 1.933133398E+04
 1.364085819E+03	 1.943966602E+04
 1.364619137E+03	 1.933933398E+04
 1.365152400E+03	 1.944000000E+04
 1.365685607E+03	 1.930200000E+04
 1.366218758E+03	 1.941833398E+04
 1.366751854E+03	 1.920433398E+04
 1.367284894E+03	 1.932366602E+04
 1.367817879E+03	 1.932966602E+04
 1.368350808E+03	 1.915066602E+04
 1.368883682E+03	 1.931433398E+04
 1.369416500E+03	 1.927466602E+04
 1.369949263E+03	 1.919266602E+04
 1.370481970E+03	 1.924700000E+04
 1.371014622E+03	 1.932666602E+04
 1.371547218E+03	 1.909600000E+04
 1.372079758E+03	 1.928400000E+04
 1.372612244E+03	 1.911633398E+04
 1.373144673E+03	 1.926633398E+04
 1.373677047E+03	 1.908866602E+04
 1.374209366E+03	 1.917033398E+04
 1.374741629E+03	 1.897900000E+04
 1.375273836E+03	 1.928066602E+04
 1.375805989E+03	 1.898033398E+04
 1.376338085E+03	 1.918966602E+04
 1.376870126E+03	 1.902466602E+04
 1.377402112E+03	 1.907333398E+04
 1.377934042E+03	 1.914866602E+04
 1.378465917E+03	 1.905500000E+04
 1.378997736E+03	 1.908833398E+04
 1.379529500E+03	 1.904866602E+04
 1.380061208E+03	 1.910866602E+04
 1.380592861E+03	 1.886733398E+04
 1.381124459E+03	 1.898466602E+04
 1.381656000E+03	 1.890333398E+04
 1.382187487E+03	 1.906433398E+04
 1.382718918E+03	 1.880033398E+04
 1.383250294E+03	 1.897600000E+04
 1.383781614E+03	 1.896033398E+04
 1.384312879E+03	 1.896600000E+04
 1.384844088E+03	 1.885533398E+04
 1.385375242E+03	 1.893733398E+04
 1.385906340E+03	 1.888433398E+04
 1.386437383E+03	 1.899433398E+04
 1.386968371E+03	 1.892833398E+04
 1.387499303E+03	 1.906833398E+04
 1.388030180E+03	 1.933166602E+04
 1.388561001E+03	 2.024900000E+04
 1.389091767E+03	 2.070533398E+04
 1.389622478E+03	 1.929266602E+04
 1.390153133E+03	 1.898200000E+04
 1.390683733E+03	 1.870933398E+04
 1.391214277E+03	 1.893933398E+04
 1.391744766E+03	 1.873700000E+04
 1.392275200E+03	 1.887133398E+04
 1.392805578E+03	 1.871000000E+04
 1.393335901E+03	 1.876600000E+04
 1.393866168E+03	 1.867533398E+04
 1.394396381E+03	 1.874100000E+04
 1.394926537E+03	 1.870433398E+04
 1.395456639E+03	 1.866466602E+04
 1.395986685E+03	 1.861066602E+04
 1.396516675E+03	 1.859833398E+04
 1.397046611E+03	 1.868766602E+04
 1.397576491E+03	 1.871333398E+04
 1.398106315E+03	 1.870133398E+04
 1.398636084E+03	 1.850900000E+04
 1.399165798E+03	 1.873500000E+04
 1.399695457E+03	 1.853733398E+04
 1.400225060E+03	 1.875700000E+04
 1.400754608E+03	 1.851366602E+04
 1.401284101E+03	 1.859500000E+04
 1.401813538E+03	 1.847666602E+04
 1.402342920E+03	 1.856566602E+04
 1.402872247E+03	 1.843966602E+04
 1.403401518E+03	 1.852933398E+04
 1.403930734E+03	 1.846666602E+04
 1.404459895E+03	 1.856366602E+04
 1.404989000E+03	 1.857366602E+04
 1.405518050E+03	 1.852100000E+04
 1.406047045E+03	 1.847800000E+04
 1.406575984E+03	 1.840200000E+04
 1.407104869E+03	 1.851966602E+04
 1.407633697E+03	 1.841933398E+04
 1.408162471E+03	 1.851700000E+04
 1.408691189E+03	 1.833333398E+04
 1.409219852E+03	 1.846133398E+04
 1.409748460E+03	 1.841066602E+04
 1.410277013E+03	 1.864533398E+04
 1.410805510E+03	 1.844033398E+04
 1.411333952E+03	 1.840233398E+04
 1.411862339E+03	 1.846500000E+04
 1.412390670E+03	 1.840400000E+04
 1.412918946E+03	 1.836800000E+04
 1.413447167E+03	 1.843400000E+04
 1.413975333E+03	 1.840466602E+04
 1.414503444E+03	 1.828733398E+04
 1.415031499E+03	 1.843933398E+04
 1.415559499E+03	 1.820266602E+04
 1.416087444E+03	 1.833200000E+04
 1.416615333E+03	 1.828133398E+04
 1.417143167E+03	 1.825666602E+04
 1.417670947E+03	 1.821566602E+04
 1.418198670E+03	 1.830500000E+04
 1.418726339E+03	 1.815866602E+04
 1.419253952E+03	 1.829500000E+04
 1.419781511E+03	 1.828466602E+04
 1.420309014E+03	 1.824833398E+04
 1.420836461E+03	 1.825866602E+04
 1.421363854E+03	 1.822500000E+04
 1.421891191E+03	 1.827100000E+04
 1.422418474E+03	 1.819100000E+04
 1.422945701E+03	 1.818633398E+04
 1.423472872E+03	 1.806800000E+04
 1.423999989E+03	 1.816800000E+04
 1.424527050E+03	 1.811400000E+04
 1.425054057E+03	 1.817866602E+04
 1.425581008E+03	 1.826166602E+04
 1.426107904E+03	 1.814000000E+04
 1.426634745E+03	 1.814600000E+04
 1.427161530E+03	 1.810200000E+04
 1.427688261E+03	 1.807666602E+04
 1.428214936E+03	 1.811566602E+04
 1.428741556E+03	 1.803600000E+04
 1.429268121E+03	 1.809500000E+04
 1.429794631E+03	 1.812100000E+04
 1.430321085E+03	 1.799533398E+04
 1.430847485E+03	 1.808766602E+04
 1.431373829E+03	 1.806933398E+04
 1.431900118E+03	 1.806900000E+04
 1.432426353E+03	 1.799800000E+04
 1.432952532E+03	 1.794833398E+04
 1.433478655E+03	 1.795400000E+04
 1.434004724E+03	 1.792566602E+04
 1.434530738E+03	 1.787633398E+04
 1.435056696E+03	 1.788400000E+04
 1.435582600E+03	 1.789933398E+04
 1.436108448E+03	 1.787966602E+04
 1.436634241E+03	 1.788733398E+04
 1.437159979E+03	 1.783133398E+04
 1.437685662E+03	 1.789366602E+04
 1.438211290E+03	 1.782233398E+04
 1.438736863E+03	 1.787300000E+04
 1.439262381E+03	 1.783300000E+04
 1.439787843E+03	 1.786633398E+04
 1.440313251E+03	 1.774266602E+04
 1.440838603E+03	 1.783866602E+04
 1.441363900E+03	 1.774733398E+04
 1.441889143E+03	 1.782233398E+04
 1.442414330E+03	 1.776033398E+04
 1.442939462E+03	 1.777666602E+04
 1.443464539E+03	 1.771066602E+04
 1.443989561E+03	 1.771466602E+04
 1.444514528E+03	 1.773966602E+04
 1.445039440E+03	 1.774733398E+04
 1.445564297E+03	 1.764866602E+04
 1.446089099E+03	 1.763933398E+04
 1.446613846E+03	 1.766500000E+04
 1.447138537E+03	 1.775033398E+04
 1.447663174E+03	 1.763000000E+04
 1.448187756E+03	 1.760933398E+04
 1.448712282E+03	 1.759700000E+04
 1.449236754E+03	 1.766666602E+04
 1.449761171E+03	 1.753700000E+04
 1.450285532E+03	 1.764566602E+04
 1.450809839E+03	 1.758000000E+04
 1.451334090E+03	 1.763200000E+04
 1.451858287E+03	 1.750700000E+04
 1.452382428E+03	 1.751133398E+04
 1.452906515E+03	 1.754133398E+04
 1.453430546E+03	 1.754466602E+04
 1.453954523E+03	 1.754766602E+04
 1.454478444E+03	 1.748566602E+04
 1.455002311E+03	 1.759066602E+04
 1.455526123E+03	 1.749500000E+04
 1.456049879E+03	 1.756533398E+04
 1.456573581E+03	 1.743166602E+04
 1.457097227E+03	 1.742000000E+04
 1.457620819E+03	 1.750833398E+04
 1.458144356E+03	 1.743600000E+04
 1.458667837E+03	 1.746766602E+04
 1.459191264E+03	 1.740066602E+04
 1.459714636E+03	 1.737633398E+04
 1.460237952E+03	 1.724800000E+04
 1.460761214E+03	 1.746733398E+04
 1.461284421E+03	 1.731266602E+04
 1.461807573E+03	 1.740500000E+04
 1.462330670E+03	 1.734333398E+04
 1.462853712E+03	 1.728366602E+04
 1.463376699E+03	 1.727633398E+04
 1.463899632E+03	 1.732966602E+04
 1.464422509E+03	 1.733433398E+04
 1.464945331E+03	 1.734500000E+04
 1.465468099E+03	 1.733800000E+04
 1.465990811E+03	 1.721266602E+04
 1.466513469E+03	 1.730133398E+04
 1.467036071E+03	 1.717400000E+04
 1.467558619E+03	 1.726966602E+04
 1.468081112E+03	 1.721900000E+04
 1.468603550E+03	 1.722966602E+04
 1.469125933E+03	 1.712533398E+04
 1.469648261E+03	 1.724900000E+04
 1.470170534E+03	 1.712833398E+04
 1.470692752E+03	 1.714700000E+04
 1.471214916E+03	 1.709266602E+04
 1.471737024E+03	 1.706800000E+04
 1.472259078E+03	 1.706266602E+04
 1.472781077E+03	 1.700800000E+04
 1.473303021E+03	 1.716166602E+04
 1.473824910E+03	 1.711366602E+04
 1.474346744E+03	 1.719100000E+04
 1.474868523E+03	 1.703100000E+04
 1.475390248E+03	 1.700066602E+04
 1.475911917E+03	 1.709633398E+04
 1.476433532E+03	 1.707133398E+04
 1.476955092E+03	 1.707900000E+04
 1.477476597E+03	 1.705566602E+04
 1.477998047E+03	 1.704133398E+04
 1.478519442E+03	 1.703600000E+04
 1.479040783E+03	 1.697866602E+04
 1.479562068E+03	 1.694133398E+04
 1.480083299E+03	 1.697000000E+04
 1.480604475E+03	 1.685700000E+04
 1.481125596E+03	 1.696766602E+04
 1.481646663E+03	 1.685566602E+04
 1.482167674E+03	 1.696233398E+04
 1.482688631E+03	 1.681400000E+04
 1.483209533E+03	 1.690466602E+04
 1.483730380E+03	 1.681466602E+04
 1.484251172E+03	 1.683300000E+04
 1.484771909E+03	 1.682733398E+04
 1.485292592E+03	 1.685966602E+04
 1.485813220E+03	 1.688466602E+04
 1.486333793E+03	 1.674533398E+04
 1.486854311E+03	 1.678600000E+04
 1.487374775E+03	 1.660333398E+04
 1.487895183E+03	 1.683666602E+04
 1.488415537E+03	 1.673700000E+04
 1.488935836E+03	 1.677733398E+04
 1.489456081E+03	 1.680600000E+04
 1.489976270E+03	 1.670533398E+04
 1.490496405E+03	 1.671633398E+04
 1.491016485E+03	 1.665333398E+04
 1.491536511E+03	 1.673066602E+04
 1.492056481E+03	 1.666100000E+04
 1.492576397E+03	 1.660866602E+04
 1.493096258E+03	 1.674166602E+04
 1.493616064E+03	 1.662700000E+04
 1.494135816E+03	 1.662566602E+04
 1.494655513E+03	 1.663266602E+04
 1.495175155E+03	 1.654966602E+04
 1.495694742E+03	 1.665566602E+04
 1.496214274E+03	 1.650566602E+04
 1.496733752E+03	 1.654566602E+04
 1.497253175E+03	 1.649733398E+04
 1.497772544E+03	 1.655333398E+04
 1.498291858E+03	 1.657400000E+04
 1.498811116E+03	 1.648433398E+04
 1.499330321E+03	 1.647100000E+04
 1.499849470E+03	 1.650766602E+04
 1.500368565E+03	 1.657966602E+04
 1.500887605E+03	 1.637333301E+04
 1.501406591E+03	 1.654933398E+04
 1.501925521E+03	 1.646566602E+04
 1.502444397E+03	 1.640700000E+04
 1.502963219E+03	 1.650166602E+04
 1.503481985E+03	 1.648866602E+04
 1.504000697E+03	 1.640666602E+04
 1.504519355E+03	 1.642666602E+04
 1.505037957E+03	 1.643700000E+04
 1.505556505E+03	 1.643466602E+04
 1.506074999E+03	 1.637166699E+04
 1.506593437E+03	 1.628566699E+04
 1.507111821E+03	 1.632700000E+04
 1.507630150E+03	 1.632000000E+04
 1.508148425E+03	 1.637400000E+04
 1.508666645E+03	 1.629333301E+04
 1.509184810E+03	 1.633833301E+04
 1.509702921E+03	 1.624066699E+04
 1.510220977E+03	 1.636500000E+04
 1.510738979E+03	 1.621400000E+04
 1.511256925E+03	 1.627366699E+04
 1.511774817E+03	 1.623400000E+04
 1.512292655E+03	 1.628833301E+04
 1.512810438E+03	 1.627233301E+04
 1.513328166E+03	 1.624166699E+04
 1.513845840E+03	 1.635433301E+04
 1.514363459E+03	 1.616433301E+04
 1.514881023E+03	 1.622600000E+04
 1.515398533E+03	 1.624466699E+04
 1.515915988E+03	 1.625200000E+04
 1.516433389E+03	 1.617733301E+04
 1.516950734E+03	 1.615933301E+04
 1.517468026E+03	 1.615233301E+04
 1.517985263E+03	 1.618633301E+04
 1.518502445E+03	 1.617700000E+04
 1.519019572E+03	 1.615766699E+04
 1.519536645E+03	 1.623000000E+04
 1.520053664E+03	 1.614600000E+04
 1.520570628E+03	 1.609833301E+04
 1.521087537E+03	 1.605700000E+04
 1.521604392E+03	 1.615033301E+04
 1.522121192E+03	 1.607866699E+04
 1.522637937E+03	 1.614933301E+04
 1.523154628E+03	 1.610466699E+04
 1.523671265E+03	 1.615166699E+04
 1.524187847E+03	 1.612400000E+04
 1.524704374E+03	 1.600566699E+04
 1.525220847E+03	 1.610533301E+04
 1.525737265E+03	 1.601766699E+04
 1.526253629E+03	 1.608700000E+04
 1.526769938E+03	 1.604166699E+04
 1.527286192E+03	 1.602866699E+04
 1.527802392E+03	 1.601400000E+04
 1.528318538E+03	 1.610000000E+04
 1.528834629E+03	 1.601233301E+04
 1.529350666E+03	 1.604800000E+04
 1.529866648E+03	 1.591300000E+04
 1.530382575E+03	 1.600500000E+04
 1.530898448E+03	 1.601566699E+04
 1.531414266E+03	 1.606766699E+04
 1.531930030E+03	 1.591366699E+04
 1.532445740E+03	 1.599033301E+04
 1.532961395E+03	 1.593500000E+04
 1.533476995E+03	 1.591433301E+04
 1.533992541E+03	 1.590633301E+04
 1.534508033E+03	 1.596433301E+04
 1.535023470E+03	 1.599466699E+04
 1.535538852E+03	 1.587566699E+04
 1.536054180E+03	 1.590900000E+04
 1.536569454E+03	 1.586733301E+04
 1.537084673E+03	 1.594500000E+04
 1.537599837E+03	 1.583800000E+04
 1.538114947E+03	 1.601466699E+04
 1.538630003E+03	 1.585666699E+04
 1.539145004E+03	 1.589766699E+04
 1.539659951E+03	 1.587633301E+04
 1.540174843E+03	 1.579866699E+04
 1.540689681E+03	 1.597100000E+04
 1.541204465E+03	 1.585933301E+04
 1.541719194E+03	 1.586533301E+04
 1.542233868E+03	 1.584766699E+04
 1.542748488E+03	 1.581733301E+04
 1.543263054E+03	 1.579700000E+04
 1.543777565E+03	 1.574233301E+04
 1.544292022E+03	 1.589133301E+04
 1.544806424E+03	 1.580600000E+04
 1.545320772E+03	 1.583933301E+04
 1.545835066E+03	 1.575300000E+04
 1.546349305E+03	 1.584200000E+04
 1.546863489E+03	 1.579400000E+04
 1.547377620E+03	 1.589133301E+04
 1.547891696E+03	 1.578800000E+04
 1.548405717E+03	 1.578366699E+04
 1.548919684E+03	 1.570233301E+04
 1.549433597E+03	 1.580400000E+04
 1.549947455E+03	 1.571533301E+04
 1.550461259E+03	 1.567033301E+04
 1.550975009E+03	 1.575366699E+04
 1.551488704E+03	 1.581233301E+04
 1.552002345E+03	 1.569400000E+04
 1.552515931E+03	 1.565666699E+04
 1.553029463E+03	 1.582400000E+04
 1.553542941E+03	 1.559266699E+04
 1.554056364E+03	 1.573800000E+04
 1.554569733E+03	 1.570466699E+04
 1.555083048E+03	 1.569266699E+04
 1.555596308E+03	 1.570600000E+04
 1.556109514E+03	 1.561000000E+04
 1.556622665E+03	 1.567966699E+04
 1.557135762E+03	 1.563933301E+04
 1.557648805E+03	 1.573433301E+04
 1.558161794E+03	 1.564900000E+04
 1.558674728E+03	 1.569433301E+04
 1.559187608E+03	 1.559233301E+04
 1.559700433E+03	 1.563900000E+04
 1.560213205E+03	 1.553500000E+04
 1.560725921E+03	 1.562100000E+04
 1.561238584E+03	 1.564066699E+04
 1.561751192E+03	 1.567333301E+04
 1.562263746E+03	 1.564466699E+04
 1.562776246E+03	 1.549533301E+04
 1.563288691E+03	 1.560900000E+04
 1.563801082E+03	 1.550833301E+04
 1.564313419E+03	 1.553466699E+04
 1.564825701E+03	 1.541233301E+04
 1.565337929E+03	 1.552100000E+04
 1.565850103E+03	 1.551866699E+04
 1.566362223E+03	 1.552766699E+04
 1.566874288E+03	 1.550300000E+04
 1.567386299E+03	 1.553933301E+04
 1.567898256E+03	 1.560933301E+04
 1.568410158E+03	 1.543633301E+04
 1.568922007E+03	 1.551800000E+04
 1.569433800E+03	 1.544900000E+04
 1.569945540E+03	 1.553133301E+04
 1.570457226E+03	 1.544733301E+04
 1.570968857E+03	 1.553733301E+04
 1.571480434E+03	 1.544533301E+04
 1.571991956E+03	 1.544466699E+04
 1.572503425E+03	 1.543666699E+04
 1.573014839E+03	 1.542266699E+04
 1.573526199E+03	 1.551900000E+04
 1.574037505E+03	 1.540133301E+04
 1.574548756E+03	 1.538000000E+04
 1.575059953E+03	 1.534233301E+04
 1.575571096E+03	 1.545833301E+04
 1.576082185E+03	 1.538900000E+04
 1.576593220E+03	 1.543233301E+04
 1.577104200E+03	 1.535800000E+04
 1.577615126E+03	 1.533400000E+04
 1.578125998E+03	 1.534800000E+04
 1.578636816E+03	 1.532066699E+04
 1.579147580E+03	 1.537300000E+04
 1.579658289E+03	 1.532333301E+04
 1.580168944E+03	 1.530266699E+04
 1.580679545E+03	 1.522466699E+04
 1.581190092E+03	 1.526900000E+04
 1.581700585E+03	 1.515400000E+04
 1.582211023E+03	 1.522400000E+04
 1.582721407E+03	 1.516800000E+04
 1.583231737E+03	 1.514500000E+04
 1.583742013E+03	 1.524866699E+04
 1.584252235E+03	 1.518000000E+04
 1.584762403E+03	 1.530366699E+04
 1.585272516E+03	 1.525700000E+04
 1.585782575E+03	 1.524300000E+04
 1.586292581E+03	 1.519666699E+04
 1.586802532E+03	 1.519400000E+04
 1.587312428E+03	 1.522600000E+04
 1.587822271E+03	 1.525266699E+04
 1.588332060E+03	 1.527333301E+04
 1.588841794E+03	 1.513066699E+04
 1.589351474E+03	 1.525066699E+04
 1.589861100E+03	 1.516500000E+04
 1.590370672E+03	 1.512933301E+04
 1.590880190E+03	 1.510766699E+04
 1.591389654E+03	 1.517866699E+04
 1.591899064E+03	 1.518966699E+04
 1.592408419E+03	 1.509833301E+04
