1042.414189	887.75
1042.980685	874.5
1043.547124	869.0
1044.113505	884.75
1044.679828	876.5
1045.246093	884.5
1045.8123	874.25
1046.378449	880.75
1046.94454	876.0
1047.510573	872.25
1048.076548	872.25
1048.642465	872.25
1049.208325	874.0
1049.774126	868.0
1050.339869	875.75
1050.905555	879.0
1051.471183	872.5
1052.036752	871.0
1052.602264	868.25
1053.167718	877.75
1053.733114	873.0
1054.298452	869.25
1054.863733	870.0
1055.428955	869.5
1055.994119	869.0
1056.559226	869.5
1057.124275	875.75
1057.689266	865.0
1058.254199	869.5
1058.819074	868.75
1059.383891	872.25
1059.94865	868.25
1060.513352	868.25
1061.077996	876.0
1061.642582	873.75
1062.20711	876.25
1062.77158	861.25
1063.335992	879.5
1063.900347	866.0
1064.464643	866.5
1065.028882	875.0
1065.593063	861.0
1066.157187	865.0
1066.721252	865.0
1067.28526	862.25
1067.84921	862.5
1068.413102	866.25
1068.976936	875.5
1069.540713	870.5
1070.104431	873.25
1070.668092	871.25
1071.231696	877.75
1071.795241	873.5
1072.358729	869.0
1072.922159	872.75
1073.485531	863.5
1074.048845	877.0
1074.612102	863.25
1075.175301	862.5
1075.738442	864.0
1076.301525	865.25
1076.864551	873.0
1077.427519	869.5
1077.990429	852.75
1078.553281	867.75
1079.116076	861.75
1079.678813	862.25
1080.241492	870.0
1080.804114	871.5
1081.366678	865.5
1081.929184	872.75
1082.491633	860.25
1083.054024	873.0
1083.616357	870.5
1084.178632	871.5
1084.74085	868.5
1085.30301	865.25
1085.865113	870.75
1086.427158	872.75
1086.989145	875.75
1087.551074	860.0
1088.112946	865.0
1088.67476	862.5
1089.236517	875.0
1089.798216	857.5
1090.359857	864.0
1090.92144	872.25
1091.482966	863.0
1092.044435	864.25
1092.605845	859.5
1093.167199	871.75
1093.728494	873.75
1094.289732	864.0
1094.850912	863.5
1095.412035	870.75
1095.9731	861.75
1096.534107	863.25
1097.095057	874.0
1097.65595	863.75
1098.216784	878.25
1098.777561	868.25
1099.338281	879.5
1099.898943	869.5
1100.459547	868.75
1101.020094	869.0
1101.580584	863.5
1102.141015	868.5
1102.701389	866.25
1103.261706	867.75
1103.821965	860.5
1104.382167	871.0
1104.942311	863.25
1105.502397	862.5
1106.062426	861.0
1106.622398	865.25
1107.182312	873.5
1107.742168	866.5
1108.301967	859.75
1108.861708	862.25
1109.421392	858.25
1109.981019	868.0
1110.540587	858.0
1111.100099	858.25
1111.659553	873.5
1112.218949	867.5
1112.778288	856.75
1113.33757	864.75
1113.896794	867.0
1114.45596	864.75
1115.015069	863.5
1115.574121	865.25
1116.133115	864.5
1116.692052	859.75
1117.250931	871.25
1117.809753	858.0
1118.368517	861.25
1118.927224	862.75
1119.485873	858.5
1120.044465	868.5
1120.603	867.25
1121.161477	864.25
1121.719897	865.0
1122.278259	861.0
1122.836564	866.25
1123.394812	865.5
1123.953002	869.75
1124.511135	861.0
1125.06921	866.5
1125.627228	867.0
1126.185189	864.5
1126.743092	862.75
1127.300938	873.0
1127.858726	871.5
1128.416457	864.0
1128.974131	868.0
1129.531748	874.5
1130.089307	871.0
1130.646808	869.5
1131.204252	867.75
1131.761639	864.0
1132.318969	876.5
1132.876241	872.5
1133.433456	863.0
1133.990614	868.25
1134.547714	864.75
1135.104757	868.5
1135.661743	855.0
1136.218671	871.5
1136.775542	865.5
1137.332356	868.25
1137.889112	878.75
1138.445811	870.0
1139.002453	878.5
1139.559037	867.75
1140.115565	871.5
1140.672035	863.25
1141.228447	875.75
1141.784803	873.25
1142.341101	866.5
1142.897342	871.25
1143.453525	883.5
1144.009651	872.25
1144.565721	872.5
1145.121732	869.75
1145.677687	864.0
1146.233584	863.5
1146.789424	874.0
1147.345207	873.5
1147.900933	879.0
1148.456601	875.25
1149.012212	871.5
1149.567766	879.5
1150.123263	864.25
1150.678702	880.5
1151.234085	907.0
1151.78941	887.0
1152.344678	876.0
1152.899888	864.75
1153.455042	869.5
1154.010138	871.25
1154.565177	866.0
1155.120159	872.0
1155.675084	879.0
1156.229951	871.25
1156.784762	870.5
1157.339515	871.25
1157.894211	873.75
1158.44885	876.75
1159.003432	869.25
1159.557956	872.25
1160.112424	879.25
1160.666834	871.75
1161.221187	875.0
1161.775483	877.75
1162.329722	880.25
1162.883904	874.5
1163.438029	878.25
1163.992096	873.5
1164.546107	869.75
1165.10006	878.75
1165.653956	874.75
1166.207795	871.75
1166.761577	870.5
1167.315302	880.5
1167.86897	874.25
1168.422581	874.75
1168.976134	874.75
1169.529631	872.75
1170.08307	875.25
1170.636453	870.5
1171.189778	884.0
1171.743046	875.0
1172.296257	869.5
1172.849412	881.0
1173.402509	882.5
1173.955549	875.75
1174.508532	880.5
1175.061458	879.5
1175.614327	883.5
1176.167138	874.5
1176.719893	880.0
1177.272591	880.75
1177.825232	880.0
1178.377816	880.75
1178.930342	876.25
1179.482812	869.25
1180.035225	882.5
1180.587581	869.75
1181.139879	873.75
1181.692121	882.5
1182.244306	885.75
1182.796434	880.0
1183.348504	879.25
1183.900518	867.5
1184.452475	879.75
1185.004375	876.5
1185.556218	883.75
1186.108004	871.25
1186.659733	875.0
1187.211405	873.25
1187.76302	877.75
1188.314578	879.25
1188.866079	884.0
1189.417523	874.25
1189.96891	879.75
1190.520241	887.0
1191.071514	877.75
1191.622731	866.5
1192.17389	876.25
1192.724993	876.25
1193.276039	897.25
1193.827027	867.75
1194.377959	880.75
1194.928834	875.5
1195.479653	882.0
1196.030414	890.0
1196.581118	883.5
1197.131766	876.5
1197.682356	879.5
1198.23289	881.0
1198.783367	873.75
1199.333786	881.25
1199.88415	871.0
1200.434456	873.75
1200.984705	889.75
1201.534898	880.5
1202.085033	874.25
1202.635112	875.25
1203.185134	877.5
1203.735099	883.25
1204.285007	889.0
1204.834859	877.5
1205.384653	882.75
1205.934391	881.0
1206.484072	888.0
1207.033696	876.5
1207.583263	887.0
1208.132774	883.5
1208.682228	878.75
1209.231624	877.5
1209.780965	896.5
1210.330248	880.5
1210.879474	870.0
1211.428644	891.0
1211.977757	877.25
1212.526813	876.75
1213.075813	878.75
1213.624755	884.25
1214.173641	878.25
1214.72247	883.0
1215.271242	880.75
1215.819958	881.25
1216.368617	879.0
1216.917219	886.0
1217.465764	892.5
1218.014253	879.75
1218.562685	883.0
1219.11106	888.75
1219.659378	880.25
1220.20764	883.0
1220.755845	888.0
1221.303993	881.75
1221.852085	875.5
1222.400119	874.0
1222.948097	877.25
1223.496019	880.5
1224.043883	882.5
1224.591691	877.25
1225.139443	891.0
1225.687137	889.5
1226.234775	884.0
1226.782357	884.5
1227.329881	891.25
1227.877349	882.75
1228.42476	886.5
1228.972115	886.75
1229.519413	885.0
1230.066654	890.5
1230.613839	883.25
1231.160967	880.75
1231.708038	885.5
1232.255053	889.75
1232.802011	884.0
1233.348912	883.25
1233.895757	878.25
1234.442545	886.75
1234.989277	889.0
1235.535951	888.0
1236.08257	885.25
1236.629131	884.25
1237.175636	881.0
1237.722085	885.0
1238.268477	886.0
1238.814812	888.25
1239.361091	879.75
1239.907313	891.5
1240.453478	885.0
1240.999587	885.5
1241.54564	882.25
1242.091636	884.0
1242.637575	886.5
1243.183457	876.5
1243.729284	889.75
1244.275053	879.75
1244.820766	892.0
1245.366423	880.5
1245.912022	890.75
1246.457566	885.75
1247.003053	893.0
1247.548483	884.25
1248.093857	889.0
1248.639174	886.75
1249.184435	892.0
1249.729639	882.75
1250.274787	887.25
1250.819878	890.75
1251.364912	887.5
1251.909891	884.75
1252.454812	887.0
1252.999677	888.75
1253.544486	879.5
1254.089238	881.5
1254.633934	889.5
1255.178573	895.25
1255.723156	885.25
1256.267682	888.75
1256.812152	888.75
1257.356565	894.25
1257.900922	886.75
1258.445223	889.25
1258.989467	896.0
1259.533654	892.0
1260.077785	908.75
1260.62186	886.75
1261.165878	898.75
1261.70984	887.25
1262.253745	894.0
1262.797594	891.25
1263.341386	882.25
1263.885123	896.75
1264.428802	891.25
1264.972425	900.0
1265.515992	913.75
1266.059503	897.75
1266.602957	890.0
1267.146354	884.5
1267.689696	894.25
1268.23298	889.25
1268.776209	890.25
1269.319381	887.75
1269.862497	885.0
1270.405556	891.0
1270.948559	889.0
1271.491506	895.25
1272.034396	891.25
1272.57723	892.75
1273.120007	892.25
1273.662728	894.75
1274.205393	888.75
1274.748002	886.5
1275.290554	891.0
1275.83305	888.0
1276.375489	889.25
1276.917872	888.5
1277.460199	897.0
1278.00247	885.75
1278.544684	891.5
1279.086842	891.0
1279.628943	887.75
1280.170989	897.75
1280.712978	900.25
1281.25491	897.0
1281.796787	893.5
1282.338607	894.75
1282.880371	891.75
1283.422078	892.5
1283.963729	894.0
1284.505324	901.75
1285.046863	923.25
1285.588345	1064.5
1286.129772	1168.5
1286.671142	996.0
1287.212455	919.5
1287.753713	901.75
1288.294914	902.25
1288.836059	893.75
1289.377147	886.0
1289.91818	896.5
1290.459156	889.0
1291.000076	895.0
1291.54094	884.0
1292.081747	884.5
1292.622499	891.75
1293.163194	895.0
1293.703833	897.75
1294.244415	895.25
1294.784942	878.75
1295.325412	885.75
1295.865826	892.25
1296.406184	894.25
1296.946486	892.5
1297.486731	896.25
1298.026921	899.25
1298.567054	884.5
1299.107131	889.0
1299.647152	891.75
1300.187116	881.25
1300.727025	887.5
1301.266877	897.5
1301.806673	885.75
1302.346413	885.0
1302.886097	880.75
1303.425725	895.5
1303.965297	883.5
1304.504812	889.25
1305.044272	896.5
1305.583675	903.25
1306.123022	893.0
1306.662313	886.25
1307.201548	882.5
1307.740727	889.75
1308.279849	883.75
1308.818916	895.5
1309.357926	888.75
1309.896881	891.75
1310.435779	888.25
1310.974621	891.75
1311.513407	882.5
1312.052137	898.25
1312.590811	895.0
1313.129429	886.75
1313.667991	887.5
1314.206497	882.5
1314.744946	885.75
1315.28334	889.75
1315.821678	891.0
1316.359959	881.5
1316.898184	887.25
1317.436354	888.25
1317.974467	892.75
1318.512525	884.25
1319.050526	887.5
1319.588471	883.5
1320.12636	889.25
1320.664194	887.75
1321.201971	897.25
1321.739692	892.75
1322.277357	887.0
1322.814967	890.25
1323.35252	888.75
1323.890017	894.75
1324.427458	892.5
1324.964843	888.25
1325.502173	887.25
1326.039446	882.0
1326.576663	885.5
1327.113824	888.5
1327.65093	887.5
1328.187979	888.0
1328.724972	886.0
1329.26191	885.25
1329.798791	891.75
1330.335617	884.75
1330.872386	898.25
1331.4091	888.5
1331.945758	884.25
1332.48236	892.75
1333.018905	889.25
1333.555395	893.0
1334.091829	895.5
1334.628207	884.25
1335.164529	889.0
1335.700796	887.0
1336.237006	892.25
1336.77316	892.75
1337.309259	890.0
1337.845301	890.75
1338.381288	889.25
1338.917219	890.25
1339.453094	885.0
1339.988913	886.25
1340.524676	887.25
1341.060383	881.75
1341.596034	884.75
1342.13163	889.25
1342.66717	900.0
1343.202653	881.25
1343.738081	899.25
1344.273453	892.5
1344.80877	882.75
1345.34403	895.75
1345.879235	889.75
1346.414383	889.25
1346.949476	890.25
1347.484513	883.5
1348.019494	888.25
1348.55442	889.25
1349.089289	889.25
1349.624103	887.25
1350.158861	885.0
1350.693563	888.75
1351.228209	889.0
1351.7628	888.0
1352.297334	887.5
1352.831813	889.75
1353.366236	888.0
1353.900604	887.0
1354.434915	893.0
1354.969171	883.75
1355.503371	888.0
1356.037515	892.25
1356.571604	886.0
1357.105636	886.25
1357.639613	877.0
1358.173535	891.25
1358.7074	888.25
1359.24121	882.25
1359.774964	891.0
1360.308662	885.5
1360.842304	890.75
1361.375891	878.0
1361.909422	890.75
1362.442897	888.25
1362.976317	887.25
1363.50968	887.25
1364.042989	885.75
1364.576241	888.0
1365.109438	886.5
1365.642579	890.0
1366.175664	892.0
1366.708693	888.75
1367.241667	885.0
1367.774585	894.0
1368.307448	892.75
1368.840255	896.25
1369.373006	895.25
1369.905701	892.75
1370.438341	888.75
1370.970925	890.25
1371.503454	883.5
1372.035926	885.0
1372.568344	882.25
1373.100705	892.75
1373.633011	886.0
1374.165261	885.75
1374.697456	891.25
1375.229595	884.75
1375.761678	888.5
1376.293705	891.75
1376.825677	890.75
1377.357594	874.25
1377.889455	886.5
1378.42126	886.75
1378.953009	888.5
1379.484703	884.25
1380.016342	889.5
1380.547924	895.75
1381.079452	892.5
1381.610923	887.5
1382.142339	882.0
1382.673699	880.5
1383.205004	894.25
1383.736253	889.75
1384.267447	886.0
1384.798585	892.5
1385.329668	893.25
1385.860695	889.25
1386.391666	880.5
1386.922582	893.5
1387.453442	895.0
1387.984247	914.0
1388.514996	1012.75
1389.04569	1362.5
1389.576328	1155.0
1390.10691	933.75
1390.637437	893.75
1391.167909	889.25
1391.698325	894.5
1392.228685	894.75
1392.75899	888.0
1393.28924	890.25
1393.819434	888.25
1394.349572	895.75
1394.879655	886.0
1395.409683	885.0
1395.939655	885.5
1396.469571	890.0
1396.999432	891.0
1397.529237	884.5
1398.058987	890.5
1398.588682	886.5
1399.118321	889.5
1399.647905	876.75
1400.177433	880.75
1400.706906	887.25
1401.236323	885.75
1401.765685	882.0
1402.294991	882.75
1402.824242	883.0
1403.353437	889.25
1403.882577	888.25
1404.411662	883.25
1404.940691	878.25
1405.469665	898.5
1405.998583	887.75
1406.527446	891.0
1407.056253	888.0
1407.585005	891.0
1408.113702	886.5
1408.642343	888.0
1409.170929	892.75
1409.69946	907.5
1410.227935	921.5
1410.756354	920.0
1411.284719	903.5
1411.813028	883.0
1412.341281	890.25
1412.869479	886.0
1413.397622	884.0
1413.92571	880.0
1414.453742	889.0
1414.981718	892.0
1415.50964	901.75
1416.037506	895.75
1416.565316	893.5
1417.093072	888.25
1417.620772	884.75
1418.148416	890.0
1418.676005	890.0
1419.203539	880.0
1419.731018	883.5
1420.258441	897.75
1420.785809	882.75
1421.313122	885.5
1421.840379	893.75
1422.367582	885.0
1422.894728	891.75
1423.42182	887.25
1423.948856	886.5
1424.475837	887.25
1425.002762	886.25
1425.529633	888.0
1426.056448	886.75
1426.583207	889.25
1427.109912	886.75
1427.636561	891.75
1428.163155	885.5
1428.689694	881.25
1429.216177	883.25
1429.742605	876.75
1430.268978	895.5
1430.795296	892.0
1431.321558	893.0
1431.847765	893.5
1432.373917	892.5
1432.900014	892.25
1433.426056	889.75
1433.952042	884.5
1434.477973	891.5
1435.003849	882.75
1435.529669	888.0
1436.055435	883.0
1436.581145	892.5
1437.1068	881.75
1437.632399	888.75
1438.157944	884.75
1438.683433	888.25
1439.208868	890.75
1439.734247	886.25
1440.25957	885.5
1440.784839	897.5
1441.310053	892.75
1441.835211	892.5
1442.360314	885.25
1442.885362	886.5
1443.410355	880.75
1443.935292	889.5
1444.460175	883.0
1444.985002	885.0
1445.509774	884.5
1446.034491	884.0
1446.559153	884.0
1447.08376	886.5
1447.608312	882.75
1448.132808	883.0
1448.65725	883.5
1449.181636	885.25
1449.705967	882.0
1450.230243	888.25
1450.754464	896.0
1451.27863	883.5
1451.802741	885.25
1452.326797	893.5
1452.850797	880.75
1453.374743	875.75
1453.898633	875.25
1454.422468	881.25
1454.946249	880.0
1455.469974	891.25
1455.993644	882.0
1456.517259	891.0
1457.040819	883.5
1457.564324	887.0
1458.087773	889.0
1458.611168	900.25
1459.134508	889.5
1459.657793	894.5
1460.181022	883.25
1460.704197	887.5
1461.227316	889.75
1461.750381	890.5
1462.27339	892.75
1462.796345	887.5
1463.319244	890.25
1463.842089	891.5
1464.364878	877.25
1464.887613	888.25
1465.410292	889.25
1465.932916	879.0
1466.455486	884.0
1466.978	886.25
1467.50046	880.0
1468.022864	879.75
1468.545214	876.25
1469.067508	884.75
1469.589748	885.0
1470.111932	878.0
1470.634062	887.0
1471.156136	888.0
1471.678156	882.75
1472.20012	888.75
1472.72203	878.25
1473.243885	885.25
1473.765685	877.25
1474.28743	890.75
1474.80912	888.75
1475.330755	883.0
1475.852335	886.75
1476.37386	887.75
1476.89533	882.75
1477.416745	887.0
1477.938106	878.75
1478.459411	885.75
1478.980662	895.0
1479.501857	887.0
1480.022998	878.5
1480.544084	882.5
1481.065115	896.0
1481.586091	882.75
1482.107012	882.0
1482.627878	881.0
1483.14869	880.5
1483.669446	883.0
1484.190148	881.75
1484.710794	883.25
1485.231386	890.75
1485.751923	884.75
1486.272406	877.5
1486.792833	881.75
1487.313205	881.0
1487.833523	886.0
1488.353786	877.0
1488.873994	886.0
1489.394147	879.75
1489.914245	889.5
1490.434288	874.25
1490.954277	885.0
1491.474211	877.5
1491.99409	883.75
1492.513914	875.75
1493.033683	878.75
1493.553398	889.75
1494.073057	887.5
1494.592662	893.5
1495.112212	882.0
1495.631708	894.75
1496.151148	882.75
1496.670534	883.5
1497.189865	888.5
1497.709141	890.5
1498.228362	874.75
1498.747529	890.75
1499.266641	875.25
1499.785698	881.0
1500.3047	881.25
1500.823648	877.0
1501.34254	887.75
1501.861379	892.5
1502.380162	888.0
1502.89889	890.5
1503.417564	881.0
1503.936183	878.25
1504.454748	891.25
1504.973257	888.75
1505.491712	886.75
1506.010112	887.25
1506.528458	885.25
1507.046748	873.5
1507.564984	882.75
1508.083166	882.5
1508.601292	874.5
1509.119364	893.5
1509.637381	880.5
1510.155344	882.5
1510.673252	890.25
1511.191105	887.25
1511.708903	878.5
1512.226647	876.5
1512.744336	882.5
1513.261971	891.0
1513.77955	887.25
1514.297076	883.25
1514.814546	876.5
1515.331962	873.25
1515.849323	890.75
1516.366629	878.0
1516.883881	879.25
1517.401078	875.0
1517.918221	875.0
1518.435309	879.0
1518.952342	887.0
1519.469321	881.5
1519.986245	885.75
1520.503114	877.25
1521.019929	876.0
1521.536689	874.75
1522.053395	882.75
1522.570046	885.25
1523.086642	883.25
1523.603184	885.5
1524.119671	882.0
1524.636103	878.0
1525.152481	883.0
1525.668805	893.25
1526.185073	887.0
1526.701288	890.5
1527.217447	879.5
1527.733552	875.75
1528.249603	886.0
1528.765599	875.0
1529.28154	886.5
1529.797427	879.75
1530.313259	878.75
1530.829037	885.5
1531.34476	876.75
1531.860429	878.0
1532.376043	877.0
1532.891602	885.0
1533.407107	881.75
1533.922558	879.75
1534.437954	875.5
1534.953295	879.25
1535.468582	876.75
1535.983815	882.5
1536.498993	876.75
1537.014116	883.0
1537.529185	881.5
1538.044199	888.25
1538.559159	878.25
1539.074064	877.0
1539.588915	884.0
1540.103712	886.75
1540.618454	876.75
1541.133141	886.75
1541.647774	889.5
1542.162353	880.75
1542.676877	880.0
1543.191346	883.0
1543.705761	888.75
1544.220122	879.5
1544.734428	877.75
1545.24868	881.25
1545.762877	884.75
1546.27702	889.25
1546.791109	883.0
1547.305143	893.25
1547.819122	895.5
1548.333047	884.25
1548.846918	887.5
1549.360734	878.25
1549.874496	879.25
1550.388204	880.5
1550.901857	885.25
1551.415455	881.25
1551.929	884.0
1552.442489	880.75
1552.955925	884.5
1553.469306	880.75
1553.982632	877.25
1554.495905	870.5
1555.009123	869.25
1555.522286	880.25
1556.035395	880.75
1556.54845	889.5
1557.06145	877.75
1557.574396	884.5
1558.087288	877.0
1558.600125	885.75
1559.112908	885.25
1559.625637	879.5
1560.138311	880.5
1562.188465	887.75
1562.700867	871.25
1563.213216	894.0
1563.725509	885.25
1564.237749	892.25
1564.749934	883.75
1565.262065	887.75
1565.774142	886.5
1566.286164	884.75
1566.798132	883.0
1567.310046	883.25
1567.821906	875.75
1568.333711	884.0
1568.845462	879.75
1569.357158	887.5
1569.868801	884.5
1570.380389	880.5
1570.891922	879.5
1571.403402	880.75
1571.914827	885.25
1572.426198	883.5
1572.937515	881.0
1573.448777	879.25
1573.959985	881.75
1574.471139	888.5
1574.982239	876.5
1575.493285	880.25
1576.004276	878.25
1576.515213	894.75
1577.026096	885.5
1577.536924	880.5
1578.047698	879.0
1578.558419	874.5
1579.069084	881.25
1579.579696	887.75
1580.090254	883.75
1580.600757	876.0
1581.111206	881.25
1581.621601	887.25
1582.131941	874.25
1582.642228	879.5
1583.15246	878.0
1583.662638	883.5
1584.172762	876.0
1584.682832	884.0
1585.192847	888.0
1585.702809	878.0
1586.212716	866.5
1586.722569	879.25
1587.232368	886.75
1587.742113	876.25
1588.251803	881.5
1588.76144	867.5
1589.271022	878.5
1589.78055	880.75
1590.290024	876.0
1590.799444	881.5
1591.30881	883.5
1591.818121	884.5
1592.327379	879.0
