1042.414189	696.0
1042.980685	694.5
1043.547124	695.75
1044.113505	701.25
1044.679828	696.5
1045.246093	700.75
1045.8123	693.0
1046.378449	695.5
1046.94454	693.5
1047.510573	696.25
1048.076548	691.25
1048.642465	690.0
1049.208325	692.0
1049.774126	689.0
1050.339869	693.25
1050.905555	691.5
1051.471183	684.5
1052.036752	687.5
1052.602264	691.75
1053.167718	690.75
1053.733114	685.25
1054.298452	688.0
1054.863733	688.25
1055.428955	687.75
1055.994119	689.0
1056.559226	688.0
1057.124275	692.5
1057.689266	687.5
1058.254199	684.0
1058.819074	686.75
1059.383891	690.5
1059.94865	686.25
1060.513352	685.5
1061.077996	690.25
1061.642582	686.5
1062.20711	687.0
1062.77158	685.25
1063.335992	686.0
1063.900347	683.5
1064.464643	688.25
1065.028882	687.25
1065.593063	686.5
1066.157187	686.25
1066.721252	685.5
1067.28526	683.0
1067.84921	685.0
1068.413102	685.25
1068.976936	687.25
1069.540713	684.0
1070.104431	689.25
1070.668092	686.0
1071.231696	684.25
1071.795241	681.5
1072.358729	682.5
1072.922159	684.75
1073.485531	684.25
1074.048845	682.5
1074.612102	687.5
1075.175301	682.75
1075.738442	681.0
1076.301525	683.75
1076.864551	683.5
1077.427519	681.5
1077.990429	685.25
1078.553281	682.25
1079.116076	684.0
1079.678813	682.5
1080.241492	682.75
1080.804114	681.75
1081.366678	681.0
1081.929184	683.0
1082.491633	684.25
1083.054024	683.5
1083.616357	684.0
1084.178632	683.0
1084.74085	681.25
1085.30301	680.25
1085.865113	686.25
1086.427158	681.75
1086.989145	682.0
1087.551074	680.25
1088.112946	680.5
1088.67476	680.0
1089.236517	683.75
1089.798216	680.5
1090.359857	682.25
1090.92144	682.5
1091.482966	682.75
1092.044435	685.25
1092.605845	682.25
1093.167199	685.25
1093.728494	683.75
1094.289732	685.0
1094.850912	682.5
1095.412035	684.0
1095.9731	683.5
1096.534107	679.25
1097.095057	687.5
1097.65595	683.5
1098.216784	681.0
1098.777561	686.0
1099.338281	683.75
1099.898943	680.25
1100.459547	679.75
1101.020094	679.75
1101.580584	680.5
1102.141015	684.25
1102.701389	679.5
1103.261706	681.0
1103.821965	682.0
1104.382167	684.75
1104.942311	681.25
1105.502397	683.5
1106.062426	679.0
1106.622398	683.25
1107.182312	683.25
1107.742168	682.75
1108.301967	680.5
1108.861708	681.0
1109.421392	680.0
1109.981019	685.75
1110.540587	683.75
1111.100099	682.5
1111.659553	682.75
1112.218949	684.5
1112.778288	683.0
1113.33757	684.0
1113.896794	681.5
1114.45596	681.75
1115.015069	682.0
1115.574121	678.25
1116.133115	680.75
1116.692052	682.25
1117.250931	687.25
1117.809753	683.0
1118.368517	682.25
1118.927224	679.75
1119.485873	679.25
1120.044465	680.5
1120.603	683.5
1121.161477	674.5
1121.719897	683.5
1122.278259	680.25
1122.836564	682.25
1123.394812	680.0
1123.953002	680.0
1124.511135	687.25
1125.06921	679.5
1125.627228	684.5
1126.185189	686.0
1126.743092	682.25
1127.300938	685.5
1127.858726	683.25
1128.416457	682.0
1128.974131	682.5
1129.531748	688.5
1130.089307	684.25
1130.646808	682.25
1131.204252	684.0
1131.761639	683.0
1132.318969	679.25
1132.876241	683.0
1133.433456	681.25
1133.990614	685.5
1134.547714	685.0
1135.104757	682.25
1135.661743	682.0
1136.218671	679.25
1136.775542	681.25
1137.332356	682.0
1137.889112	682.0
1138.445811	685.0
1139.002453	681.5
1139.559037	685.75
1140.115565	686.5
1140.672035	686.25
1141.228447	682.25
1141.784803	681.0
1142.341101	682.5
1142.897342	686.0
1143.453525	689.0
1144.009651	689.0
1144.565721	689.25
1145.121732	682.75
1145.677687	685.25
1146.233584	683.0
1146.789424	690.5
1147.345207	693.25
1147.900933	702.25
1148.456601	697.0
1149.012212	688.75
1149.567766	693.75
1150.123263	717.75
1150.678702	784.0
1151.234085	799.5
1151.78941	717.0
1152.344678	696.5
1152.899888	686.5
1153.455042	684.25
1154.010138	685.5
1154.565177	683.75
1155.120159	685.75
1155.675084	682.25
1156.229951	681.5
1156.784762	684.5
1157.339515	681.0
1157.894211	682.0
1158.44885	683.25
1159.003432	683.5
1159.557956	683.25
1160.112424	682.5
1160.666834	684.25
1161.221187	680.75
1161.775483	683.5
1162.329722	685.5
1162.883904	683.0
1163.438029	682.5
1163.992096	682.75
1164.546107	682.0
1165.10006	685.0
1165.653956	682.75
1166.207795	686.25
1166.761577	683.75
1167.315302	680.75
1167.86897	678.75
1168.422581	679.5
1168.976134	682.75
1169.529631	678.25
1170.08307	681.0
1170.636453	680.75
1171.189778	682.0
1171.743046	680.75
1172.296257	678.0
1172.849412	680.75
1173.402509	678.5
1173.955549	680.75
1174.508532	683.0
1175.061458	682.0
1175.614327	681.5
1176.167138	678.25
1176.719893	684.5
1177.272591	681.0
1177.825232	678.5
1178.377816	681.0
1178.930342	680.5
1179.482812	681.5
1180.035225	680.5
1180.587581	682.75
1181.139879	679.0
1181.692121	677.75
1182.244306	678.5
1182.796434	680.75
1183.348504	679.0
1183.900518	680.25
1184.452475	681.25
1185.004375	682.5
1185.556218	680.5
1186.108004	677.75
1186.659733	681.75
1187.211405	681.0
1187.76302	684.0
1188.314578	681.5
1188.866079	678.75
1189.417523	678.75
1189.96891	679.25
1190.520241	677.0
1191.071514	676.75
1191.622731	682.0
1192.17389	682.75
1192.724993	678.75
1193.276039	701.75
1193.827027	679.75
1194.377959	678.75
1194.928834	680.5
1195.479653	683.25
1196.030414	678.25
1196.581118	679.5
1197.131766	680.5
1197.682356	677.5
1198.23289	679.25
1198.783367	680.5
1199.333786	680.5
1199.88415	677.25
1200.434456	681.25
1200.984705	678.25
1201.534898	678.0
1202.085033	682.0
1202.635112	680.25
1203.185134	681.0
1203.735099	679.75
1204.285007	675.5
1204.834859	680.0
1205.384653	680.5
1205.934391	679.0
1206.484072	683.25
1207.033696	677.5
1207.583263	679.5
1208.132774	678.5
1208.682228	682.0
1209.231624	681.5
1209.780965	682.0
1210.330248	680.25
1210.879474	680.25
1211.428644	677.5
1211.977757	682.0
1212.526813	678.75
1213.075813	679.75
1213.624755	680.5
1214.173641	681.0
1214.72247	680.75
1215.271242	682.0
1215.819958	682.5
1216.368617	681.0
1216.917219	679.0
1217.465764	682.25
1218.014253	680.75
1218.562685	674.5
1219.11106	678.5
1219.659378	683.5
1220.20764	674.0
1220.755845	676.75
1221.303993	678.5
1221.852085	677.25
1222.400119	678.75
1222.948097	679.25
1223.496019	673.75
1224.043883	681.5
1224.591691	680.0
1225.139443	674.75
1225.687137	680.5
1226.234775	679.75
1226.782357	678.75
1227.329881	681.75
1227.877349	680.0
1228.42476	682.25
1228.972115	682.25
1229.519413	683.5
1230.066654	679.5
1230.613839	679.5
1231.160967	681.5
1231.708038	680.25
1232.255053	679.0
1232.802011	680.0
1233.348912	676.5
1233.895757	680.5
1234.442545	679.5
1234.989277	681.5
1235.535951	681.75
1236.08257	676.5
1236.629131	681.0
1237.175636	680.0
1237.722085	678.5
1238.268477	680.5
1238.814812	679.25
1239.361091	679.75
1239.907313	679.25
1240.453478	679.25
1240.999587	679.75
1241.54564	681.0
1242.091636	679.5
1242.637575	676.75
1243.183457	676.25
1243.729284	678.25
1244.275053	681.5
1244.820766	679.5
1245.366423	679.75
1245.912022	678.75
1246.457566	677.0
1247.003053	679.0
1247.548483	681.5
1248.093857	677.5
1248.639174	680.75
1249.184435	678.75
1249.729639	679.5
1250.274787	678.5
1250.819878	680.5
1251.364912	679.75
1251.909891	679.75
1252.454812	679.5
1252.999677	679.25
1253.544486	682.5
1254.089238	680.75
1254.633934	680.0
1255.178573	676.75
1255.723156	680.75
1256.267682	681.5
1256.812152	678.25
1257.356565	679.75
1257.900922	677.0
1258.445223	678.5
1258.989467	681.75
1259.533654	680.25
1260.077785	696.25
1260.62186	680.5
1261.165878	682.0
1261.70984	684.0
1262.253745	682.0
1262.797594	685.0
1263.341386	679.25
1263.885123	687.5
1264.428802	687.0
1264.972425	702.0
1265.515992	715.0
1266.059503	706.0
1266.602957	691.75
1267.146354	683.5
1267.689696	684.5
1268.23298	682.75
1268.776209	679.75
1269.319381	679.25
1269.862497	678.5
1270.405556	679.5
1270.948559	682.0
1271.491506	678.0
1272.034396	681.25
1272.57723	681.75
1273.120007	675.0
1273.662728	679.5
1274.205393	679.75
1274.748002	678.5
1275.290554	678.0
1275.83305	678.0
1276.375489	680.25
1276.917872	682.5
1277.460199	681.5
1278.00247	683.25
1278.544684	678.75
1279.086842	677.5
1279.628943	680.25
1280.170989	681.75
1280.712978	678.0
1281.25491	679.75
1281.796787	679.25
1282.338607	682.75
1282.880371	690.0
1283.422078	689.25
1283.963729	702.5
1284.505324	738.0
1285.046863	860.5
1285.588345	1134.5
1286.129772	1052.25
1286.671142	780.25
1287.212455	709.5
1287.753713	690.75
1288.294914	689.75
1288.836059	682.0
1289.377147	684.75
1289.91818	680.5
1290.459156	681.75
1291.000076	679.0
1291.54094	678.75
1292.081747	676.75
1292.622499	680.75
1293.163194	679.0
1293.703833	676.5
1294.244415	679.75
1294.784942	678.25
1295.325412	678.5
1295.865826	677.5
1296.406184	682.5
1296.946486	679.75
1297.486731	681.25
1298.026921	678.25
1298.567054	681.5
1299.107131	676.25
1299.647152	681.5
1300.187116	683.0
1300.727025	682.0
1301.266877	677.25
1301.806673	676.25
1302.346413	678.5
1302.886097	680.0
1303.425725	679.75
1303.965297	677.25
1304.504812	675.75
1305.044272	678.5
1305.583675	676.0
1306.123022	683.25
1306.662313	680.5
1307.201548	677.25
1307.740727	679.75
1308.279849	680.25
1308.818916	680.0
1309.357926	672.25
1309.896881	678.75
1310.435779	680.25
1310.974621	679.0
1311.513407	678.0
1312.052137	675.5
1312.590811	678.25
1313.129429	679.0
1313.667991	674.0
1314.206497	679.25
1314.744946	676.0
1315.28334	679.75
1315.821678	675.75
1316.359959	679.75
1316.898184	676.0
1317.436354	679.75
1317.974467	676.75
1318.512525	678.5
1319.050526	679.0
1319.588471	678.75
1320.12636	678.0
1320.664194	679.0
1321.201971	676.75
1321.739692	674.75
1322.277357	676.5
1322.814967	680.25
1323.35252	675.75
1323.890017	686.25
1324.427458	677.0
1324.964843	679.75
1325.502173	680.25
1326.039446	680.75
1326.576663	677.25
1327.113824	677.75
1327.65093	677.5
1328.187979	682.25
1328.724972	676.25
1329.26191	676.5
1329.798791	680.0
1330.335617	678.25
1330.872386	679.75
1331.4091	675.5
1331.945758	678.25
1332.48236	676.25
1333.018905	681.25
1333.555395	681.25
1334.091829	680.75
1334.628207	676.5
1335.164529	679.0
1335.700796	677.75
1336.237006	676.75
1336.77316	675.25
1337.309259	675.75
1337.845301	679.5
1338.381288	678.5
1338.917219	677.5
1339.453094	679.5
1339.988913	678.5
1340.524676	677.5
1341.060383	678.0
1341.596034	678.25
1342.13163	677.5
1342.66717	679.0
1343.202653	682.0
1343.738081	680.5
1344.273453	680.0
1344.80877	680.0
1345.34403	681.25
1345.879235	676.75
1346.414383	678.25
1346.949476	677.5
1347.484513	678.0
1348.019494	679.25
1348.55442	677.5
1349.089289	676.0
1349.624103	677.25
1350.158861	681.0
1350.693563	678.0
1351.228209	678.5
1351.7628	678.0
1352.297334	680.25
1352.831813	677.75
1353.366236	678.25
1353.900604	678.25
1354.434915	679.0
1354.969171	680.0
1355.503371	681.0
1356.037515	679.0
1356.571604	675.0
1357.105636	678.5
1357.639613	675.0
1358.173535	680.25
1358.7074	678.0
1359.24121	674.0
1359.774964	678.75
1360.308662	676.75
1360.842304	676.0
1361.375891	676.0
1361.909422	681.5
1362.442897	676.5
1362.976317	681.5
1363.50968	676.5
1364.042989	679.5
1364.576241	681.75
1365.109438	677.0
1365.642579	678.25
1366.175664	682.0
1366.708693	682.25
1367.241667	679.5
1367.774585	674.5
1368.307448	676.25
1368.840255	676.5
1369.373006	681.75
1369.905701	678.5
1370.438341	690.0
1370.970925	690.0
1371.503454	681.25
1372.035926	680.5
1372.568344	676.25
1373.100705	681.0
1373.633011	679.75
1374.165261	679.75
1374.697456	679.25
1375.229595	678.5
1375.761678	681.0
1376.293705	681.0
1376.825677	678.5
1377.357594	682.5
1377.889455	681.5
1378.42126	678.75
1378.953009	679.0
1379.484703	680.25
1380.016342	679.25
1380.547924	677.75
1381.079452	676.75
1381.610923	678.25
1382.142339	680.25
1382.673699	681.5
1383.205004	682.0
1383.736253	681.5
1384.267447	682.25
1384.798585	682.5
1385.329668	682.75
1385.860695	687.5
1386.391666	691.75
1386.922582	698.25
1387.453442	712.75
1387.984247	782.0
1388.514996	1112.5
1389.04569	1575.5
1389.576328	1019.75
1390.10691	748.25
1390.637437	705.0
1391.167909	691.25
1391.698325	684.25
1392.228685	688.75
1392.75899	681.0
1393.28924	677.75
1393.819434	681.5
1394.349572	679.75
1394.879655	681.5
1395.409683	678.75
1395.939655	680.25
1396.469571	681.0
1396.999432	681.75
1397.529237	681.0
1398.058987	678.0
1398.588682	682.75
1399.118321	674.25
1399.647905	678.25
1400.177433	681.25
1400.706906	680.25
1401.236323	676.5
1401.765685	680.75
1402.294991	681.75
1402.824242	678.0
1403.353437	679.75
1403.882577	676.75
1404.411662	679.0
1404.940691	684.25
1405.469665	677.25
1405.998583	683.0
1406.527446	680.0
1407.056253	681.75
1407.585005	681.5
1408.113702	686.75
1408.642343	687.5
1409.170929	688.5
1409.69946	712.0
1410.227935	743.75
1410.756354	728.75
1411.284719	694.5
1411.813028	685.5
1412.341281	682.75
1412.869479	678.75
1413.397622	676.5
1413.92571	679.5
1414.453742	678.75
1414.981718	680.0
1415.50964	694.0
1416.037506	677.75
1416.565316	676.75
1417.093072	680.25
1417.620772	682.25
1418.148416	678.25
1418.676005	676.25
1419.203539	675.75
1419.731018	674.5
1420.258441	680.25
1420.785809	678.25
1421.313122	677.75
1421.840379	674.5
1422.367582	677.0
1422.894728	678.5
1423.42182	677.25
1423.948856	678.5
1424.475837	677.75
1425.002762	679.5
1425.529633	679.0
1426.056448	679.75
1426.583207	678.75
1427.109912	677.75
1427.636561	680.25
1428.163155	677.75
1428.689694	678.0
1429.216177	681.25
1429.742605	678.0
1430.268978	678.25
1430.795296	677.5
1431.321558	677.75
1431.847765	677.5
1432.373917	674.5
1432.900014	673.25
1433.426056	677.0
1433.952042	679.5
1434.477973	677.0
1435.003849	677.75
1435.529669	678.25
1436.055435	674.0
1436.581145	681.0
1437.1068	672.5
1437.632399	674.75
1438.157944	674.5
1438.683433	678.5
1439.208868	674.75
1439.734247	675.5
1440.25957	679.0
1440.784839	676.75
1441.310053	675.5
1441.835211	675.25
1442.360314	675.0
1442.885362	679.75
1443.410355	678.0
1443.935292	674.75
1444.460175	675.0
1444.985002	676.25
1445.509774	674.25
1446.034491	676.25
1446.559153	675.5
1447.08376	675.75
1447.608312	674.75
1448.132808	677.25
1448.65725	676.0
1449.181636	675.5
1449.705967	670.0
1450.230243	677.5
1450.754464	676.5
1451.27863	678.0
1451.802741	678.75
1452.326797	674.5
1452.850797	678.75
1453.374743	676.0
1453.898633	675.5
1454.422468	676.0
1454.946249	677.25
1455.469974	673.5
1455.993644	676.0
1456.517259	677.5
1457.040819	678.5
1457.564324	674.75
1458.087773	676.25
1458.611168	676.75
1459.134508	675.0
1459.657793	678.0
1460.181022	680.0
1460.704197	674.0
1461.227316	678.75
1461.750381	674.25
1462.27339	677.75
1462.796345	686.75
1463.319244	687.0
1463.842089	678.75
1464.364878	676.0
1464.887613	675.25
1465.410292	673.5
1465.932916	678.5
1466.455486	677.0
1466.978	675.75
1467.50046	674.5
1468.022864	673.75
1468.545214	674.0
1469.067508	678.0
1469.589748	679.0
1470.111932	679.25
1470.634062	675.5
1471.156136	678.75
1471.678156	675.5
1472.20012	678.0
1472.72203	673.0
1473.243885	675.25
1473.765685	676.75
1474.28743	676.0
1474.80912	676.25
1475.330755	674.75
1475.852335	670.5
1476.37386	674.5
1476.89533	674.5
1477.416745	677.0
1477.938106	676.0
1478.459411	674.5
1478.980662	677.25
1479.501857	672.25
1480.022998	679.25
1480.544084	676.25
1481.065115	675.25
1481.586091	674.75
1482.107012	673.5
1482.627878	680.0
1483.14869	677.0
1483.669446	674.5
1484.190148	675.75
1484.710794	677.5
1485.231386	677.0
1485.751923	675.75
1486.272406	674.5
1486.792833	673.25
1487.313205	675.0
1487.833523	676.5
1488.353786	672.0
1488.873994	676.75
1489.394147	674.0
1489.914245	677.25
1490.434288	677.0
1490.954277	675.0
1491.474211	675.25
1491.99409	674.5
1492.513914	674.25
1493.033683	674.0
1493.553398	674.5
1494.073057	677.0
1494.592662	672.25
1495.112212	677.0
1495.631708	673.25
1496.151148	675.75
1496.670534	677.25
1497.189865	676.75
1497.709141	673.25
1498.228362	675.0
1498.747529	675.25
1499.266641	675.75
1499.785698	679.75
1500.3047	673.5
1500.823648	676.0
1501.34254	676.0
1501.861379	673.75
1502.380162	675.5
1502.89889	674.5
1503.417564	676.5
1503.936183	677.75
1504.454748	677.0
1504.973257	675.75
1505.491712	673.25
1506.010112	676.75
1506.528458	676.0
1507.046748	673.25
1507.564984	675.25
1508.083166	678.0
1508.601292	675.75
1509.119364	673.5
1509.637381	675.0
1510.155344	676.25
1510.673252	688.0
1511.191105	671.5
1511.708903	675.75
1512.226647	676.5
1512.744336	679.5
1513.261971	676.5
1513.77955	672.25
1514.297076	674.75
1514.814546	675.75
1515.331962	674.0
1515.849323	676.5
1516.366629	673.75
1516.883881	675.25
1517.401078	675.25
1517.918221	674.25
1518.435309	674.0
1518.952342	672.75
1519.469321	673.25
1519.986245	674.75
1520.503114	675.75
1521.019929	680.5
1521.536689	675.75
1522.053395	674.0
1522.570046	675.0
1523.086642	676.5
1523.603184	674.5
1524.119671	676.25
1524.636103	674.0
1525.152481	675.25
1525.668805	679.0
1526.185073	685.0
1526.701288	677.5
1527.217447	674.5
1527.733552	674.25
1528.249603	674.0
1528.765599	673.75
1529.28154	673.75
1529.797427	679.5
1530.313259	674.75
1530.829037	674.5
1531.34476	675.0
1531.860429	672.25
1532.376043	673.25
1532.891602	671.75
1533.407107	674.25
1533.922558	675.5
1534.437954	675.25
1534.953295	674.5
1535.468582	680.0
1535.983815	674.5
1536.498993	675.5
1537.014116	675.25
1537.529185	674.75
1538.044199	676.0
1538.559159	674.75
1539.074064	677.5
1539.588915	674.75
1540.103712	675.25
1540.618454	672.0
1541.133141	676.0
1541.647774	676.5
1542.162353	675.75
1542.676877	674.0
1543.191346	674.0
1543.705761	674.75
1544.220122	674.75
1544.734428	673.0
1545.24868	674.5
1545.762877	674.75
1546.27702	677.5
1546.791109	674.75
1547.305143	675.25
1547.819122	676.0
1548.333047	674.5
1548.846918	676.0
1549.360734	675.0
1549.874496	675.25
1550.388204	680.75
1551.929	675.25
1552.442489	672.5
1552.955925	676.25
1553.469306	674.75
1553.982632	672.25
1554.495905	674.25
1555.009123	678.25
1555.522286	675.5
1556.035395	670.75
1556.54845	673.0
1557.06145	676.5
1557.574396	676.75
1558.087288	670.75
1558.600125	674.25
1559.112908	674.25
1559.625637	675.5
1560.138311	676.25
1560.650931	673.75
1561.163497	676.25
1561.676008	672.75
1562.188465	674.0
1562.700867	674.5
1563.213216	676.5
1563.725509	676.25
1564.237749	677.0
1564.749934	673.5
1565.262065	677.0
1565.774142	676.0
1566.286164	678.0
1566.798132	680.25
1567.310046	677.0
1567.821906	681.75
1568.333711	677.5
1568.845462	677.5
1569.357158	673.0
1569.868801	674.25
1570.380389	672.25
1570.891922	673.75
1571.403402	673.25
1571.914827	673.5
1572.426198	675.5
1572.937515	674.0
1573.448777	675.5
1573.959985	677.5
1574.471139	674.75
1574.982239	677.0
1575.493285	674.25
1576.004276	675.75
1576.515213	672.5
1577.026096	675.25
1577.536924	671.75
1578.047698	675.0
1578.558419	673.75
1579.069084	676.0
1579.579696	678.5
1580.090254	674.5
1580.600757	674.0
1581.111206	674.0
1581.621601	675.0
1582.131941	675.0
1582.642228	671.75
1583.15246	678.0
1583.662638	672.5
1584.172762	674.25
1584.682832	679.25
1585.192847	673.5
1585.702809	674.5
1586.212716	675.0
1586.722569	671.5
1587.232368	673.75
1587.742113	673.5
1588.251803	673.5
1588.76144	674.25
1589.271022	673.5
1589.78055	675.0
1590.290024	673.0
1590.799444	675.0
1591.30881	671.25
1591.818121	680.5
1592.327379	675.75
