1042.414189	710.75
1042.980685	705.5
1043.547124	705.5
1044.113505	703.5
1044.679828	703.75
1045.246093	703.0
1045.8123	702.5
1046.378449	702.0
1046.94454	700.5
1047.510573	696.5
1048.076548	697.25
1048.642465	700.0
1049.208325	697.0
1049.774126	702.0
1050.339869	698.5
1050.905555	703.0
1051.471183	692.5
1052.036752	692.25
1052.602264	691.5
1053.167718	692.75
1053.733114	696.25
1054.298452	693.75
1054.863733	695.0
1055.428955	694.5
1055.994119	692.5
1056.559226	688.5
1057.124275	695.75
1057.689266	692.0
1058.254199	690.0
1058.819074	693.5
1059.383891	694.5
1059.94865	695.0
1060.513352	692.5
1061.077996	688.5
1061.642582	694.75
1062.20711	687.5
1062.77158	695.75
1063.335992	692.25
1063.900347	692.75
1064.464643	688.75
1065.028882	689.0
1065.593063	689.0
1066.157187	693.25
1066.721252	692.5
1067.28526	689.0
1067.84921	693.25
1068.413102	685.5
1068.976936	690.0
1069.540713	689.5
1070.104431	697.0
1070.668092	689.5
1071.231696	686.75
1071.795241	691.25
1072.358729	691.75
1072.922159	687.25
1073.485531	690.0
1074.048845	693.25
1074.612102	691.25
1075.175301	688.0
1075.738442	690.25
1076.301525	688.75
1076.864551	689.25
1077.427519	692.5
1077.990429	686.75
1078.553281	689.0
1079.116076	685.5
1079.678813	687.75
1080.241492	685.5
1080.804114	691.75
1081.366678	688.25
1081.929184	689.5
1082.491633	687.25
1083.054024	689.75
1083.616357	688.25
1084.178632	689.25
1084.74085	691.5
1085.30301	689.0
1085.865113	694.0
1086.427158	685.5
1086.989145	687.0
1087.551074	691.0
1088.112946	686.5
1088.67476	685.75
1089.236517	687.75
1089.798216	693.5
1090.359857	688.5
1090.92144	690.5
1091.482966	691.75
1092.044435	687.25
1092.605845	688.25
1093.167199	688.25
1093.728494	687.75
1094.289732	685.0
1094.850912	688.5
1095.412035	696.25
1095.9731	688.0
1096.534107	687.25
1097.095057	696.5
1097.65595	689.75
1098.216784	690.5
1098.777561	694.75
1099.338281	690.5
1099.898943	688.75
1100.459547	685.0
1101.020094	688.25
1101.580584	691.25
1102.141015	688.5
1102.701389	690.25
1103.261706	687.25
1103.821965	686.0
1104.382167	688.5
1104.942311	689.75
1105.502397	687.5
1106.062426	685.0
1106.622398	688.0
1107.182312	687.0
1107.742168	686.0
1108.301967	690.0
1108.861708	685.75
1109.421392	692.75
1109.981019	686.0
1110.540587	688.0
1111.100099	688.0
1111.659553	690.25
1112.218949	687.75
1112.778288	689.75
1113.33757	687.0
1113.896794	689.75
1114.45596	689.75
1115.015069	691.5
1115.574121	685.25
1116.133115	690.5
1116.692052	689.5
1117.250931	686.25
1117.809753	688.25
1118.368517	688.25
1118.927224	687.0
1119.485873	689.0
1120.044465	684.5
1120.603	691.0
1121.161477	686.0
1121.719897	687.0
1122.278259	688.25
1122.836564	689.0
1123.394812	688.0
1123.953002	687.5
1124.511135	685.5
1125.06921	686.0
1125.627228	692.0
1126.185189	693.5
1126.743092	688.25
1127.300938	685.75
1127.858726	690.0
1128.416457	690.25
1128.974131	687.0
1129.531748	692.75
1130.089307	687.25
1130.646808	688.75
1131.204252	689.0
1131.761639	686.0
1132.318969	688.75
1132.876241	689.5
1133.433456	688.75
1133.990614	686.25
1134.547714	689.75
1135.104757	692.0
1135.661743	686.75
1136.218671	690.25
1136.775542	685.25
1137.332356	691.5
1137.889112	688.5
1138.445811	686.75
1139.002453	689.0
1139.559037	690.5
1140.115565	686.0
1140.672035	687.25
1141.228447	687.5
1141.784803	690.25
1142.341101	685.75
1142.897342	689.5
1143.453525	690.75
1144.009651	689.75
1144.565721	688.25
1145.121732	688.0
1145.677687	688.5
1146.233584	689.5
1146.789424	692.0
1147.345207	692.0
1147.900933	693.75
1148.456601	690.25
1149.012212	693.0
1149.567766	696.75
1150.123263	703.5
1150.678702	723.75
1151.234085	729.75
1151.78941	706.0
1152.344678	692.75
1152.899888	689.0
1153.455042	689.75
1154.010138	690.75
1154.565177	687.5
1155.120159	688.25
1155.675084	692.0
1156.229951	689.5
1156.784762	689.25
1157.339515	691.75
1157.894211	684.5
1158.44885	689.0
1159.003432	685.25
1159.557956	688.75
1160.112424	688.75
1160.666834	690.25
1161.221187	690.25
1161.775483	689.25
1162.329722	687.5
1162.883904	689.75
1163.438029	690.5
1163.992096	692.25
1164.546107	692.0
1165.10006	688.75
1165.653956	687.25
1166.207795	689.5
1166.761577	689.25
1167.315302	686.25
1167.86897	688.5
1168.422581	685.0
1168.976134	692.25
1169.529631	690.25
1170.08307	692.5
1170.636453	684.75
1171.189778	690.25
1171.743046	686.0
1172.296257	688.0
1172.849412	685.25
1173.402509	689.75
1173.955549	689.0
1174.508532	689.0
1175.061458	687.5
1175.614327	688.5
1176.167138	687.5
1176.719893	684.25
1177.272591	686.75
1177.825232	687.0
1178.377816	683.75
1178.930342	687.25
1179.482812	687.25
1180.035225	685.0
1180.587581	686.25
1181.139879	686.5
1181.692121	689.0
1182.244306	691.5
1182.796434	689.25
1183.348504	685.25
1183.900518	688.25
1184.452475	690.0
1185.004375	682.75
1185.556218	691.25
1186.108004	687.25
1186.659733	688.25
1187.211405	685.0
1187.76302	692.0
1188.314578	687.5
1188.866079	685.5
1189.417523	687.0
1189.96891	690.25
1190.520241	689.75
1191.071514	687.75
1191.622731	687.5
1192.17389	685.5
1192.724993	688.0
1193.276039	707.25
1193.827027	683.25
1194.377959	688.0
1194.928834	688.75
1195.479653	688.25
1196.030414	688.75
1196.581118	686.75
1197.131766	687.0
1197.682356	684.75
1198.23289	690.0
1198.783367	687.25
1199.333786	686.75
1199.88415	688.75
1200.434456	688.25
1200.984705	691.5
1201.534898	687.5
1202.085033	687.75
1202.635112	691.0
1203.185134	684.75
1203.735099	690.0
1204.285007	687.75
1204.834859	687.25
1205.384653	690.0
1205.934391	686.5
1206.484072	688.5
1207.033696	684.75
1207.583263	686.25
1208.132774	687.25
1208.682228	688.5
1209.231624	689.25
1209.780965	688.5
1210.330248	688.75
1210.879474	686.75
1211.428644	688.75
1211.977757	690.0
1212.526813	690.0
1213.075813	684.75
1213.624755	691.5
1214.173641	689.25
1214.72247	689.75
1215.271242	687.25
1215.819958	687.75
1216.368617	687.0
1216.917219	687.5
1217.465764	685.25
1218.014253	687.0
1218.562685	685.0
1219.11106	686.25
1219.659378	683.75
1220.20764	694.0
1220.755845	688.75
1221.303993	689.5
1221.852085	691.5
1222.400119	684.75
1222.948097	688.25
1223.496019	687.0
1224.043883	687.5
1224.591691	686.25
1225.139443	688.5
1225.687137	690.0
1226.234775	685.25
1226.782357	685.75
1227.329881	686.5
1227.877349	686.75
1228.42476	681.75
1228.972115	688.5
1229.519413	691.0
1230.066654	687.25
1230.613839	690.25
1231.160967	687.0
1231.708038	689.5
1232.255053	689.0
1232.802011	690.5
1233.348912	690.0
1233.895757	688.75
1234.442545	690.75
1234.989277	688.5
1235.535951	684.0
1236.08257	687.75
1236.629131	688.5
1237.175636	687.25
1237.722085	688.25
1238.268477	692.25
1238.814812	686.5
1239.361091	687.0
1239.907313	685.25
1240.453478	688.25
1240.999587	686.5
1241.54564	687.25
1242.091636	687.5
1242.637575	686.25
1243.183457	687.5
1243.729284	688.0
1244.275053	684.0
1244.820766	686.0
1245.366423	687.0
1245.912022	686.25
1246.457566	687.25
1247.003053	688.0
1247.548483	689.0
1248.093857	690.75
1248.639174	685.0
1249.184435	686.5
1249.729639	691.25
1250.274787	690.0
1250.819878	688.5
1251.364912	686.25
1251.909891	689.25
1252.454812	686.5
1252.999677	686.5
1253.544486	689.0
1254.089238	691.0
1254.633934	688.75
1255.178573	688.0
1255.723156	688.75
1256.267682	686.5
1256.812152	684.25
1257.356565	687.5
1257.900922	688.5
1258.445223	686.25
1258.989467	685.25
1259.533654	686.5
1260.077785	703.5
1260.62186	685.25
1261.165878	687.25
1261.70984	690.75
1262.253745	688.75
1262.797594	686.25
1263.341386	686.5
1263.885123	686.75
1264.428802	686.75
1264.972425	691.75
1265.515992	692.5
1266.059503	693.0
1266.602957	687.25
1267.146354	686.25
1267.689696	685.75
1268.23298	688.25
1268.776209	691.5
1269.319381	688.75
1269.862497	686.0
1270.405556	685.5
1270.948559	689.75
1271.491506	688.75
1272.034396	689.5
1272.57723	689.75
1273.120007	687.0
1273.662728	687.5
1274.205393	694.5
1274.748002	688.5
1275.290554	688.75
1275.83305	688.5
1276.375489	687.0
1276.917872	687.5
1277.460199	685.25
1278.00247	687.75
1278.544684	685.0
1279.086842	684.5
1279.628943	688.75
1280.170989	688.25
1280.712978	686.75
1281.25491	688.0
1281.796787	689.0
1282.338607	689.75
1282.880371	687.75
1283.422078	690.75
1283.963729	688.0
1284.505324	693.75
1285.046863	719.75
1285.588345	788.0
1286.129772	804.75
1286.671142	720.25
1287.212455	698.75
1287.753713	692.5
1288.294914	697.5
1288.836059	686.5
1289.377147	690.5
1289.91818	686.0
1290.459156	683.25
1291.000076	686.25
1291.54094	691.75
1292.081747	686.0
1292.622499	685.5
1293.163194	687.25
1293.703833	689.25
1294.244415	689.75
1294.784942	685.0
1295.325412	683.75
1295.865826	689.75
1296.406184	691.0
1296.946486	689.5
1297.486731	684.25
1298.026921	683.0
1298.567054	688.25
1299.107131	687.25
1299.647152	685.25
1300.187116	685.75
1300.727025	686.0
1301.266877	686.75
1301.806673	683.25
1302.346413	684.75
1302.886097	689.25
1303.425725	687.5
1303.965297	688.75
1304.504812	691.25
1305.044272	685.75
1305.583675	685.5
1306.123022	688.5
1306.662313	687.75
1307.201548	692.0
1307.740727	691.25
1308.279849	687.5
1308.818916	687.0
1309.357926	688.5
1309.896881	684.75
1310.435779	684.25
1310.974621	683.25
1311.513407	687.0
1312.052137	685.25
1312.590811	683.25
1313.129429	687.0
1313.667991	684.25
1314.206497	688.0
1314.744946	690.5
1315.28334	687.75
1315.821678	687.0
1316.359959	683.25
1316.898184	686.5
1317.436354	687.5
1317.974467	686.25
1318.512525	684.25
1319.050526	685.5
1319.588471	691.5
1320.12636	690.0
1320.664194	684.0
1321.201971	688.75
1321.739692	687.0
1322.277357	684.75
1322.814967	686.75
1323.35252	682.25
1323.890017	693.25
1324.427458	687.0
1324.964843	685.0
1325.502173	686.25
1326.039446	686.25
1326.576663	689.5
1327.113824	687.75
1327.65093	689.25
1328.187979	688.5
1328.724972	688.75
1329.26191	686.5
1329.798791	684.25
1330.335617	689.0
1330.872386	688.0
1331.4091	690.0
1331.945758	685.0
1332.48236	689.25
1333.018905	682.75
1333.555395	689.0
1334.091829	688.0
1334.628207	685.25
1335.164529	684.5
1335.700796	682.75
1336.237006	685.5
1336.77316	682.75
1337.309259	686.75
1337.845301	686.75
1338.381288	685.0
1338.917219	690.25
1339.453094	688.75
1339.988913	682.5
1340.524676	689.25
1341.060383	685.0
1341.596034	688.5
1342.13163	686.5
1342.66717	688.25
1343.202653	683.0
1343.738081	692.75
1344.273453	687.5
1344.80877	686.5
1345.34403	687.0
1345.879235	687.25
1346.414383	686.75
1346.949476	688.25
1347.484513	686.25
1348.019494	686.75
1348.55442	685.25
1349.089289	687.5
1349.624103	687.5
1350.158861	683.75
1350.693563	686.75
1351.228209	689.0
1351.7628	686.5
1352.297334	684.0
1352.831813	685.25
1353.366236	688.25
1353.900604	686.25
1354.434915	687.25
1354.969171	689.25
1355.503371	687.25
1356.037515	685.75
1356.571604	688.0
1357.105636	690.0
1357.639613	689.25
1358.173535	689.75
1358.7074	683.75
1359.24121	689.0
1359.774964	691.0
1360.308662	688.75
1360.842304	687.75
1361.375891	687.5
1361.909422	685.0
1362.442897	690.25
1362.976317	689.5
1363.50968	684.0
1364.042989	683.5
1364.576241	685.25
1365.109438	684.75
1365.642579	686.75
1366.175664	688.25
1366.708693	685.25
1367.241667	686.0
1367.774585	688.25
1368.307448	685.5
1368.840255	692.25
1369.373006	685.0
1369.905701	691.75
1370.438341	688.75
1370.970925	694.5
1371.503454	688.75
1372.035926	689.5
1372.568344	688.5
1373.100705	688.0
1373.633011	686.5
1374.165261	688.0
1374.697456	685.0
1375.229595	684.5
1375.761678	688.25
1376.293705	688.5
1376.825677	687.0
1377.357594	688.0
1377.889455	688.5
1378.42126	689.25
1378.953009	685.75
1379.484703	686.0
1380.016342	686.25
1380.547924	687.0
1381.079452	688.25
1381.610923	690.75
1382.142339	692.75
1382.673699	687.75
1383.205004	688.0
1383.736253	689.75
1384.267447	689.25
1384.798585	688.25
1385.329668	687.75
1385.860695	685.5
1386.391666	688.5
1386.922582	690.75
1387.453442	694.25
1387.984247	707.0
1388.514996	778.0
1389.04569	926.25
1389.576328	794.5
1390.10691	707.5
1390.637437	694.5
1391.167909	693.0
1391.698325	692.0
1392.228685	684.75
1392.75899	690.5
1393.28924	687.75
1393.819434	686.0
1394.349572	690.0
1394.879655	687.25
1395.409683	686.75
1395.939655	690.75
1396.469571	689.75
1396.999432	686.0
1397.529237	684.75
1398.058987	691.0
1398.588682	689.75
1399.118321	688.0
1399.647905	685.0
1400.177433	690.0
1400.706906	689.0
1401.236323	691.5
1401.765685	687.5
1402.294991	684.25
1402.824242	686.25
1403.353437	687.5
1403.882577	685.5
1404.411662	687.5
1404.940691	685.75
1405.469665	690.75
1405.998583	689.5
1406.527446	688.25
1407.056253	686.5
1407.585005	687.25
1408.113702	687.25
1408.642343	689.25
1409.170929	689.25
1409.69946	692.25
1410.227935	702.5
1410.756354	697.75
1411.284719	693.5
1411.813028	688.75
1412.341281	683.0
1412.869479	687.0
1413.397622	685.75
1413.92571	687.25
1414.453742	686.25
1414.981718	686.0
1415.50964	697.0
1416.037506	688.0
1416.565316	686.25
1417.093072	687.5
1417.620772	685.5
1418.148416	688.0
1418.676005	690.0
1419.203539	688.5
1419.731018	688.0
1420.258441	690.25
1420.785809	687.75
1421.313122	685.5
1421.840379	685.0
1422.367582	689.5
1422.894728	686.0
1423.42182	686.5
1423.948856	692.0
1424.475837	685.75
1425.002762	690.25
1425.529633	686.0
1426.056448	685.0
1426.583207	686.0
1427.109912	688.75
1427.636561	687.0
1428.163155	689.75
1428.689694	687.0
1429.216177	689.75
1429.742605	687.0
1430.268978	687.0
1430.795296	690.75
1431.321558	691.0
1431.847765	689.0
1432.373917	682.75
1432.900014	687.75
1433.426056	686.75
1433.952042	689.75
1434.477973	688.0
1435.003849	692.25
1435.529669	687.5
1436.055435	683.25
1436.581145	689.0
1437.1068	687.0
1437.632399	688.5
1438.157944	687.5
1438.683433	690.0
1439.208868	684.0
1439.734247	688.5
1440.25957	688.25
1440.784839	686.5
1441.310053	691.0
1441.835211	688.25
1442.360314	688.0
1442.885362	689.5
1443.410355	690.75
1443.935292	686.25
1444.460175	686.75
1444.985002	684.75
1445.509774	688.0
1446.034491	689.5
1446.559153	690.5
1447.08376	687.75
1447.608312	688.25
1448.132808	688.0
1448.65725	687.25
1449.181636	684.75
1449.705967	687.25
1450.230243	688.25
1450.754464	683.5
1451.27863	693.0
1451.802741	689.25
1452.326797	689.75
1452.850797	689.75
1453.374743	685.0
1453.898633	687.0
1454.422468	686.5
1454.946249	689.5
1455.469974	687.25
1455.993644	687.5
1456.517259	691.0
1457.040819	687.5
1457.564324	683.5
1458.087773	692.75
1458.611168	688.0
1459.134508	687.5
1459.657793	688.0
1460.181022	688.5
1460.704197	686.25
1461.227316	690.0
1461.750381	690.0
1462.27339	688.25
1462.796345	693.5
1463.319244	692.5
1463.842089	690.25
1464.364878	688.0
1464.887613	694.25
1465.410292	688.0
1465.932916	690.0
1466.455486	684.5
1466.978	682.75
1467.50046	685.5
1468.022864	692.5
1468.545214	688.5
1469.067508	684.0
1469.589748	687.5
1470.111932	687.0
1470.634062	685.5
1471.156136	687.25
1471.678156	687.0
1472.20012	687.25
1472.72203	690.5
1473.243885	686.5
1473.765685	687.25
1474.28743	688.75
1474.80912	689.5
1475.330755	687.0
1475.852335	686.5
1476.37386	688.0
1476.89533	688.5
1477.416745	689.75
1477.938106	684.0
1478.459411	683.5
1478.980662	687.75
1479.501857	689.25
1480.022998	686.25
1480.544084	686.25
1481.065115	684.75
1481.586091	690.0
1482.107012	691.0
1482.627878	686.75
1483.14869	687.5
1483.669446	685.75
1484.190148	686.5
1484.710794	690.25
1485.231386	688.0
1485.751923	691.25
1486.272406	689.75
1486.792833	690.0
1487.313205	686.75
1487.833523	690.0
1488.353786	685.5
1488.873994	688.5
1489.394147	687.5
1489.914245	681.25
1490.434288	690.75
1490.954277	687.5
1491.474211	688.5
1491.99409	685.0
1492.513914	685.5
1493.033683	689.0
1493.553398	690.5
1494.073057	685.0
1494.592662	688.5
1495.112212	685.5
1495.631708	688.25
1496.151148	684.0
1496.670534	688.75
1497.189865	685.5
1497.709141	690.75
1499.266641	693.25
1499.785698	692.75
1500.3047	686.0
1500.823648	687.75
1501.34254	686.0
1501.861379	685.75
1502.380162	686.0
1502.89889	687.5
1503.417564	687.25
1503.936183	683.75
1504.454748	685.25
1504.973257	688.25
1505.491712	686.0
1506.010112	689.5
1506.528458	686.5
1507.046748	683.5
1507.564984	687.0
1508.083166	685.25
1508.601292	684.25
1509.119364	687.25
1509.637381	688.5
1510.155344	685.0
1510.673252	697.25
1511.191105	687.25
1511.708903	690.25
1512.226647	687.5
1512.744336	688.0
1513.261971	687.75
1513.77955	683.0
1514.297076	688.75
1514.814546	687.25
1515.331962	683.5
1515.849323	686.25
1516.366629	686.25
1516.883881	685.25
1517.401078	685.25
1517.918221	686.25
1518.435309	689.75
1518.952342	686.75
1519.469321	687.0
1519.986245	684.25
1520.503114	686.75
1521.019929	686.25
1521.536689	690.25
1522.053395	685.5
1522.570046	688.25
1523.086642	687.75
1523.603184	689.0
1524.119671	684.0
1524.636103	688.0
1525.152481	685.75
1525.668805	688.5
1526.185073	696.5
1526.701288	690.5
1527.217447	693.0
1527.733552	690.25
1528.249603	684.5
1528.765599	687.75
1529.28154	686.25
1529.797427	686.25
1530.313259	691.75
1530.829037	687.75
1531.34476	687.75
1531.860429	684.25
1532.376043	686.25
1532.891602	686.0
1533.407107	687.0
1533.922558	688.75
1534.437954	689.5
1534.953295	690.0
1535.468582	688.25
1535.983815	689.25
1536.498993	687.5
1537.014116	685.5
1537.529185	687.25
1538.044199	687.5
1538.559159	686.25
1539.074064	687.0
1539.588915	687.25
1540.103712	684.0
1540.618454	687.75
1541.133141	687.75
1541.647774	687.0
1542.162353	685.0
1542.676877	686.5
1543.191346	687.25
1543.705761	690.75
1544.220122	690.25
1544.734428	688.25
1545.24868	685.75
1545.762877	690.5
1546.27702	687.75
1546.791109	687.0
1547.305143	690.75
1547.819122	686.5
1548.333047	688.25
1548.846918	681.5
1549.360734	690.0
1549.874496	690.5
1550.388204	684.0
1550.901857	682.5
1551.415455	685.5
1551.929	684.25
1552.442489	687.75
1552.955925	685.0
1553.469306	684.75
1553.982632	689.75
1554.495905	688.75
1555.009123	688.0
1555.522286	689.0
1556.035395	683.0
1556.54845	686.75
1557.06145	687.25
1557.574396	682.75
1558.087288	687.25
1558.600125	689.5
1559.112908	688.25
1559.625637	685.75
1560.138311	690.5
1560.650931	687.0
1561.163497	687.0
1561.676008	693.75
1562.188465	691.5
1562.700867	687.75
1563.213216	691.75
1563.725509	686.25
1564.237749	685.75
1564.749934	689.25
1565.262065	685.75
1565.774142	688.0
1566.286164	691.0
1566.798132	690.25
1567.310046	689.5
1567.821906	689.25
1568.333711	685.25
1568.845462	685.25
1569.357158	688.0
1569.868801	692.0
1570.380389	689.5
1570.891922	689.0
1571.403402	687.75
1571.914827	693.0
1572.426198	689.25
1572.937515	687.75
1573.448777	684.25
1573.959985	684.0
1574.471139	690.5
1574.982239	686.0
1575.493285	684.0
1576.004276	688.0
1576.515213	689.0
1577.026096	686.0
1577.536924	687.75
1578.047698	686.75
1578.558419	687.0
1579.069084	685.25
1579.579696	690.5
1580.090254	688.0
1580.600757	685.0
1581.111206	688.75
1581.621601	686.0
1582.131941	689.75
1582.642228	687.25
1583.15246	690.75
1583.662638	687.5
1584.172762	688.0
1584.682832	688.5
1585.192847	690.0
1585.702809	689.75
1586.212716	689.5
1586.722569	691.0
1587.232368	687.75
1587.742113	687.5
1588.251803	688.25
1588.76144	687.5
1589.271022	688.75
1589.78055	689.25
1590.290024	686.25
1590.799444	687.5
1591.30881	687.25
1591.818121	684.25
1592.327379	685.5
