1043.018714	1289.400024
1043.585098	1297.800049
1044.151424	1285.599976
1044.717692	1307.0
1045.283903	1291.199951
1045.850056	1301.400024
1046.416151	1281.199951
1046.982188	1290.800049
1047.548167	1288.800049
1048.114089	1306.400024
1048.679953	1295.400024
1049.24576	1294.0
1049.811509	1289.400024
1050.3772	1301.599976
1050.942833	1296.0
1051.508408	1285.599976
1052.073926	1294.199951
1052.639387	1274.800049
1053.204789	1281.400024
1053.770134	1274.199951
1054.335421	1275.0
1054.900651	1287.0
1055.465823	1275.599976
1056.030937	1280.800049
1056.595993	1271.800049
1057.160992	1290.599976
1057.725934	1271.800049
1058.290817	1284.199951
1058.855643	1296.800049
1059.420411	1269.800049
1059.985122	1280.800049
1060.549775	1271.199951
1061.114371	1275.400024
1061.678908	1278.199951
1062.243389	1277.0
1062.807811	1275.0
1063.372176	1288.199951
1063.936483	1297.800049
1064.500733	1272.400024
1065.064925	1273.400024
1065.62906	1275.599976
1066.193137	1271.800049
1066.757156	1282.0
1067.321118	1276.400024
1067.885022	1275.400024
1068.448869	1276.0
1069.012658	1276.199951
1069.57639	1275.0
1070.140063	1285.0
1070.70368	1278.599976
1071.267239	1268.400024
1071.83074	1263.400024
1072.394184	1268.599976
1072.95757	1277.599976
1073.520899	1265.400024
1074.08417	1266.400024
1074.647383	1257.800049
1075.21054	1271.599976
1075.773638	1263.400024
1076.336679	1253.199951
1076.899663	1257.400024
1077.462589	1264.800049
1078.025457	1265.199951
1078.588268	1258.800049
1079.151022	1281.0
1079.713718	1260.199951
1080.276356	1267.0
1080.838937	1257.199951
1081.401461	1258.599976
1081.963927	1269.599976
1082.526336	1263.0
1083.088687	1259.599976
1083.650981	1254.800049
1084.213217	1257.599976
1084.775396	1257.199951
1085.337517	1249.400024
1085.899581	1261.199951
1086.461587	1250.599976
1087.023536	1267.0
1087.585428	1239.800049
1088.147262	1253.400024
1088.709039	1256.800049
1089.270758	1256.400024
1089.83242	1249.599976
1090.394024	1259.0
1090.955571	1247.599976
1091.517061	1246.599976
1092.078493	1248.400024
1092.639868	1246.199951
1093.201185	1254.599976
1093.762445	1241.199951
1094.323648	1244.599976
1094.884793	1253.199951
1095.445881	1254.800049
1096.006911	1240.0
1096.567884	1253.400024
1097.1288	1253.800049
1097.689659	1239.0
1098.25046	1252.199951
1098.811203	1236.599976
1099.37189	1248.800049
1099.932518	1225.400024
1100.49309	1231.199951
1101.053604	1234.199951
1101.614061	1243.800049
1102.174461	1235.0
1102.734803	1236.400024
1103.295088	1241.800049
1103.855316	1239.0
1104.415486	1235.199951
1104.975599	1241.199951
1105.535655	1245.400024
1106.095653	1233.0
1106.655594	1239.599976
1107.215478	1231.400024
1107.775305	1226.0
1108.335074	1223.199951
1108.894786	1226.0
1109.45444	1229.199951
1110.014038	1228.599976
1110.573578	1229.400024
1111.133061	1220.599976
1111.692486	1234.400024
1112.251854	1228.800049
1112.811165	1212.800049
1113.370419	1219.599976
1113.929616	1232.400024
1114.488755	1226.199951
1115.047837	1226.599976
1115.606862	1223.199951
1116.16583	1237.800049
1116.72474	1217.199951
1117.283593	1222.0
1117.842389	1233.400024
1118.401128	1219.599976
1118.959809	1210.400024
1119.518433	1219.0
1120.077	1236.0
1120.63551	1222.0
1121.193963	1219.400024
1121.752358	1215.599976
1122.310697	1222.400024
1122.868978	1212.0
1123.427202	1210.599976
1123.985368	1225.0
1124.543478	1206.400024
1125.10153	1212.0
1125.659526	1217.400024
1126.217464	1214.199951
1126.775345	1223.800049
1127.333168	1202.400024
1127.890935	1230.199951
1128.448644	1207.199951
1129.006297	1225.0
1129.563892	1212.599976
1130.12143	1211.199951
1130.678911	1206.599976
1131.236335	1220.199951
1131.793701	1229.400024
1132.351011	1216.599976
1132.908263	1216.599976
1133.465458	1206.800049
1134.022597	1206.199951
1134.579678	1214.599976
1135.136702	1218.599976
1135.693669	1210.0
1136.250578	1214.199951
1136.807431	1230.800049
1137.364227	1216.599976
1137.920965	1222.400024
1138.477647	1208.199951
1139.034271	1211.800049
1139.590839	1210.800049
1140.147349	1211.400024
1140.703802	1212.199951
1141.260198	1217.800049
1141.816537	1216.199951
1142.37282	1217.0
1142.929045	1209.599976
1143.485213	1211.0
1144.041323	1203.199951
1144.597377	1205.599976
1145.153374	1212.599976
1145.709314	1204.0
1146.265197	1210.800049
1146.821023	1213.0
1147.376792	1214.800049
1147.932503	1202.599976
1148.488158	1204.800049
1149.043756	1202.400024
1149.599297	1217.199951
1150.154781	1211.599976
1150.710207	1215.599976
1151.265577	1203.400024
1151.82089	1211.599976
1152.376146	1211.400024
1152.931345	1210.0
1153.486487	1208.599976
1154.041572	1209.199951
1154.5966	1217.400024
1155.151571	1209.199951
1155.706485	1211.0
1156.261342	1214.800049
1156.816142	1212.599976
1157.370885	1214.199951
1157.925572	1216.800049
1158.480201	1205.400024
1159.034774	1207.800049
1159.589289	1200.0
1160.143748	1211.599976
1160.698149	1216.199951
1161.252494	1221.0
1161.806782	1212.800049
1162.361013	1214.199951
1162.915187	1209.800049
1163.469304	1207.800049
1164.023364	1210.0
1164.577368	1196.0
1165.131314	1214.800049
1165.685204	1213.199951
1166.239036	1208.400024
1166.792812	1206.400024
1167.346531	1205.599976
1167.900193	1208.800049
1168.453798	1193.400024
1169.007347	1198.800049
1169.560838	1199.800049
1170.114273	1203.800049
1170.66765	1197.800049
1171.220971	1200.199951
1171.774235	1207.199951
1172.327443	1212.599976
1172.880593	1200.199951
1173.433687	1204.599976
1173.986723	1204.599976
1174.539703	1202.400024
1175.092626	1199.599976
1175.645493	1189.199951
1176.198302	1203.599976
1176.751055	1186.199951
1177.303751	1211.599976
1177.85639	1205.599976
1178.408972	1199.199951
1178.961498	1190.400024
1179.513966	1191.199951
1180.066378	1201.599976
1180.618733	1201.599976
1181.171032	1195.800049
1181.723273	1196.800049
1182.275458	1201.0
1182.827586	1195.0
1183.379657	1182.599976
1183.931672	1192.0
1184.48363	1200.599976
1185.035531	1211.800049
1185.587375	1202.199951
1186.139162	1200.800049
1186.690893	1189.400024
1187.242567	1184.599976
1187.794184	1195.0
1188.345745	1195.0
1188.897249	1197.800049
1189.448696	1195.199951
1190.000086	1202.400024
1190.55142	1196.400024
1191.102697	1194.0
1191.653918	1189.0
1192.205081	1190.800049
1192.756188	1203.0
1193.307238	1213.0
1193.858232	1195.199951
1194.409169	1182.400024
1194.960049	1192.199951
1195.510872	1199.0
1196.061639	1189.199951
1196.612349	1181.400024
1197.163003	1188.599976
1197.713599	1177.599976
1198.264139	1185.0
1198.814623	1182.800049
1199.36505	1185.800049
1199.91542	1187.400024
1200.465734	1182.400024
1201.01599	1174.599976
1201.566191	1180.199951
1202.116334	1194.599976
1202.666421	1184.400024
1203.216452	1189.199951
1203.766425	1182.199951
1204.316343	1184.800049
1204.866203	1185.599976
1205.416007	1189.400024
1205.965754	1179.400024
1206.515445	1187.0
1207.065079	1183.0
1207.614657	1200.800049
1208.164177	1184.400024
1208.713642	1169.800049
1209.26305	1172.400024
1209.812401	1182.400024
1210.361695	1177.800049
1210.910933	1170.800049
1211.460115	1181.400024
1212.00924	1172.400024
1212.558308	1186.0
1213.10732	1181.0
1213.656275	1185.199951
1214.205174	1165.599976
1214.754016	1178.0
1215.302801	1176.0
1215.85153	1175.400024
1216.400203	1175.800049
1216.948819	1177.800049
1217.497378	1175.599976
1218.045881	1183.599976
1218.594327	1173.199951
1219.142717	1177.599976
1219.691051	1173.400024
1220.239327	1174.400024
1220.787548	1168.0
1221.335712	1166.400024
1221.883819	1186.199951
1222.43187	1176.199951
1222.979864	1165.599976
1223.527802	1179.599976
1224.075683	1165.800049
1224.623508	1160.400024
1225.171277	1169.599976
1225.718989	1169.599976
1226.266644	1176.400024
1226.814243	1181.0
1227.361786	1172.400024
1227.909272	1163.199951
1228.456702	1180.199951
1229.004075	1159.599976
1229.551392	1183.400024
1230.098652	1170.0
1230.645856	1163.800049
1231.193003	1180.0
1231.740094	1175.400024
1232.287129	1162.199951
1232.834107	1167.400024
1233.381029	1168.800049
1233.927894	1169.400024
1234.474703	1161.199951
1235.021455	1168.800049
1235.568151	1161.599976
1236.114791	1186.599976
1236.661374	1169.800049
1237.207901	1164.0
1237.754372	1169.599976
1238.300786	1168.599976
1238.847144	1172.400024
1239.393445	1161.400024
1239.93969	1155.599976
1240.485879	1160.199951
1241.032011	1177.400024
1241.578087	1169.199951
1242.124106	1165.0
1242.67007	1158.800049
1243.215976	1175.400024
1243.761827	1165.199951
1244.307621	1164.0
1244.853359	1173.0
1245.39904	1160.599976
1245.944665	1150.599976
1246.490234	1164.0
1247.035746	1167.0
1247.581203	1170.599976
1248.126602	1161.199951
1248.671946	1160.0
1249.217233	1172.800049
1249.762464	1158.400024
1250.307638	1161.599976
1250.852757	1160.599976
1251.397819	1165.199951
1251.942824	1159.0
1252.487774	1162.599976
1253.032667	1157.0
1253.577503	1166.0
1254.122284	1167.599976
1254.667008	1161.400024
1255.211676	1153.800049
1255.756288	1169.0
1256.300843	1148.199951
1256.845342	1157.599976
1257.389785	1147.400024
1257.934172	1155.800049
1258.478502	1170.400024
1259.022776	1160.199951
1259.566994	1156.599976
1260.111156	1171.0
1260.655261	1159.800049
1261.199311	1162.0
1261.743304	1149.199951
1262.28724	1158.400024
1262.831121	1165.599976
1263.374945	1151.800049
1263.918713	1155.599976
1264.462425	1164.199951
1265.006081	1179.199951
1265.54968	1178.599976
1266.093223	1170.0
1266.636711	1158.800049
1267.180141	1153.800049
1267.723516	1156.599976
1268.266835	1155.800049
1268.810097	1155.800049
1269.353303	1154.400024
1269.896453	1150.800049
1270.439547	1138.400024
1270.982584	1149.199951
1271.525566	1152.0
1272.068491	1152.400024
1272.61136	1157.0
1273.154173	1149.599976
1273.69693	1162.0
1274.239631	1134.199951
1274.782275	1132.599976
1275.324864	1146.199951
1275.867396	1156.599976
1276.409872	1142.599976
1276.952292	1151.800049
1277.494656	1145.400024
1278.036964	1145.199951
1278.579215	1153.0
1279.121411	1157.599976
1279.66355	1145.199951
1280.205634	1154.0
1280.747661	1151.800049
1281.289632	1147.199951
1281.831547	1139.599976
1282.373406	1154.0
1282.915209	1154.800049
1283.456955	1159.400024
1283.998646	1163.199951
1284.540281	1167.199951
1285.081859	1285.599976
1285.623381	1658.0
1286.164848	1569.0
1286.706258	1233.599976
1287.247612	1169.599976
1287.788911	1147.199951
1288.330153	1149.599976
1288.871339	1143.0
1289.412469	1143.199951
1289.953543	1135.599976
1290.494561	1152.199951
1291.035523	1144.800049
1291.576428	1144.599976
1292.117278	1151.400024
1292.658072	1161.800049
1293.19881	1141.199951
1293.739492	1146.199951
1294.280118	1142.0
1294.820687	1145.199951
1295.361201	1140.400024
1295.901659	1130.800049
1296.442061	1138.199951
1296.982406	1132.199951
1297.522696	1141.199951
1298.06293	1139.400024
1298.603108	1135.0
1299.143229	1139.599976
1299.683295	1139.400024
1300.223305	1140.400024
1300.763259	1145.400024
1301.303157	1140.199951
1301.842999	1132.599976
1302.382785	1145.199951
1302.922515	1143.800049
1303.462189	1135.0
1304.001807	1128.800049
1304.541369	1130.400024
1305.080875	1146.800049
1305.620326	1137.0
1306.15972	1134.800049
1306.699058	1119.800049
1307.238341	1127.0
1307.777567	1141.800049
1308.316738	1136.400024
1308.855853	1127.800049
1309.394912	1136.599976
1309.933915	1126.599976
1310.472862	1135.599976
1311.011753	1133.0
1311.550588	1129.0
1312.089367	1136.0
1312.62809	1134.599976
1313.166758	1126.0
1313.70537	1130.400024
1314.243925	1131.800049
1314.782425	1128.0
1315.320869	1132.800049
1315.859257	1121.599976
1316.397589	1123.199951
1316.935866	1129.400024
1317.474086	1128.0
1318.012251	1135.599976
1318.55036	1126.199951
1319.088413	1110.599976
1319.62641	1129.199951
1320.164351	1120.400024
1320.702236	1132.599976
1321.240066	1122.599976
1321.777839	1131.800049
1322.315557	1120.800049
1322.853219	1123.800049
1323.390826	1122.400024
1323.928376	1138.0
1324.465871	1128.800049
1325.003309	1120.0
1325.540692	1117.800049
1326.07802	1112.199951
1326.615291	1120.0
1327.152506	1124.800049
1327.689666	1125.199951
1328.22677	1112.400024
1328.763818	1115.400024
1329.300811	1108.199951
1329.837747	1115.599976
1330.374628	1115.599976
1330.911453	1126.400024
1331.448222	1113.400024
1331.984936	1124.800049
1332.521594	1118.0
1333.058196	1113.400024
1333.594742	1121.199951
1334.131232	1115.599976
1334.667667	1121.400024
1335.204046	1118.599976
1335.740369	1130.400024
1336.276637	1117.0
1336.812848	1119.800049
1337.349004	1124.400024
1337.885105	1123.400024
1338.421149	1114.400024
1338.957138	1116.800049
1339.493071	1126.400024
1340.028949	1124.199951
1340.56477	1112.400024
1341.100536	1120.400024
1341.636246	1110.599976
1342.171901	1115.599976
1342.7075	1114.599976
1343.243043	1126.199951
1343.77853	1127.0
1344.313962	1122.199951
1344.849338	1117.599976
1345.384659	1115.599976
1345.919923	1115.400024
1346.455133	1116.800049
1346.990286	1116.0
1347.525384	1116.400024
1348.060426	1106.199951
1348.595412	1123.199951
1349.665218	1111.599976
1350.200037	1124.599976
1350.734801	1115.0
1351.269509	1116.0
1351.804162	1110.0
1352.338758	1116.599976
1352.8733	1112.599976
1353.407785	1121.400024
1353.942215	1113.800049
1354.476589	1121.599976
1355.010908	1109.0
1355.545171	1105.199951
1356.079379	1113.599976
1356.61353	1110.599976
1357.147627	1109.199951
1357.681667	1106.400024
1358.215652	1111.0
1358.749582	1118.199951
1359.283456	1108.199951
1359.817274	1108.800049
1360.351037	1109.400024
1360.884744	1109.599976
1361.418395	1104.400024
1361.951991	1115.0
1362.485531	1106.800049
1363.019016	1113.599976
1363.552445	1098.599976
1364.085819	1100.400024
1364.619137	1098.0
1365.1524	1098.0
1365.685607	1110.0
1366.218758	1106.400024
1366.751854	1095.800049
1367.284894	1115.800049
1367.817879	1098.199951
1368.350808	1112.0
1368.883682	1098.199951
1369.4165	1128.800049
1369.949263	1102.599976
1370.48197	1111.0
1371.014622	1108.800049
1371.547218	1104.800049
1372.079758	1103.199951
1372.612244	1110.0
1373.144673	1099.199951
1373.677047	1110.400024
1374.209366	1092.400024
1374.741629	1104.199951
1375.273836	1099.599976
1375.805989	1102.0
1376.338085	1094.599976
1376.870126	1101.0
1377.402112	1101.599976
1377.934042	1097.599976
1378.465917	1102.0
1378.997736	1104.599976
1379.5295	1098.0
1380.061208	1106.400024
1380.592861	1105.0
1381.124459	1094.0
1381.656	1104.800049
1382.187487	1096.400024
1382.718918	1093.599976
1383.250294	1099.0
1383.781614	1099.400024
1384.312879	1110.199951
1384.844088	1116.199951
1385.375242	1112.599976
1385.90634	1113.800049
1386.437383	1113.400024
1386.968371	1109.400024
1387.499303	1134.400024
1388.03018	1176.800049
1388.561001	1611.599976
1389.091767	2023.0
1389.622478	1338.199951
1390.153133	1135.400024
1390.683733	1114.0
1391.214277	1099.199951
1391.744766	1106.400024
1392.2752	1097.199951
1392.805578	1108.0
1393.335901	1105.199951
1393.866168	1103.599976
1394.396381	1097.0
1394.926537	1103.400024
1395.456639	1092.0
1395.986685	1089.400024
1396.516675	1091.199951
1397.046611	1089.599976
1397.576491	1093.599976
1398.106315	1092.400024
1398.636084	1091.400024
1399.165798	1092.800049
1399.695457	1102.199951
1400.22506	1089.599976
1400.754608	1095.199951
1401.284101	1092.400024
1401.813538	1082.599976
1402.34292	1091.800049
1402.872247	1086.400024
1403.401518	1101.800049
1403.930734	1088.199951
1404.459895	1106.400024
1404.989	1092.400024
1405.51805	1096.0
1406.047045	1080.599976
1406.575984	1091.800049
1407.104869	1092.800049
1407.633697	1101.199951
1408.162471	1089.400024
1408.691189	1095.0
1409.219852	1094.199951
1409.74846	1133.400024
1410.277013	1169.800049
1410.80551	1127.0
1411.333952	1101.400024
1411.862339	1087.400024
1412.39067	1102.599976
1412.918946	1084.0
1413.447167	1088.199951
1413.975333	1089.0
1414.503444	1089.800049
1415.031499	1076.599976
1415.559499	1098.599976
1416.087444	1095.800049
1416.615333	1085.400024
1417.143167	1098.0
1417.670947	1094.599976
1418.19867	1092.400024
1418.726339	1088.0
1419.253952	1094.800049
1419.781511	1083.400024
1420.309014	1091.0
1420.836461	1085.400024
1421.363854	1085.800049
1421.891191	1081.800049
1422.418474	1093.800049
1422.945701	1081.599976
1423.472872	1091.800049
1423.999989	1088.199951
1424.52705	1084.400024
1425.054057	1087.0
1425.581008	1093.0
1426.107904	1090.199951
1426.634745	1087.599976
1427.16153	1093.199951
1427.688261	1075.800049
1428.214936	1089.199951
1428.741556	1076.199951
1429.268121	1102.0
1429.794631	1088.0
1430.321085	1083.0
1430.847485	1086.0
1431.373829	1081.199951
1431.900118	1090.800049
1432.426353	1082.199951
1432.952532	1081.199951
1433.478655	1077.800049
1434.004724	1067.800049
1434.530738	1068.400024
1435.056696	1084.0
1435.5826	1087.400024
1436.108448	1078.599976
1436.634241	1091.0
1437.159979	1084.199951
1437.685662	1075.400024
1438.21129	1079.800049
1438.736863	1089.0
1439.262381	1078.199951
1439.787843	1084.599976
1440.313251	1087.199951
1440.838603	1081.800049
1441.3639	1077.800049
1441.889143	1081.800049
1442.41433	1072.800049
1442.939462	1076.400024
1443.464539	1084.800049
1443.989561	1071.0
1444.514528	1075.0
1445.03944	1078.400024
1445.564297	1075.0
1446.089099	1083.800049
1446.613846	1078.599976
1447.138537	1078.400024
1447.663174	1075.400024
1448.187756	1070.0
1448.712282	1076.800049
1449.236754	1075.0
1449.761171	1081.400024
1450.285532	1074.0
1450.809839	1068.599976
1451.33409	1077.0
1451.858287	1066.199951
1452.382428	1080.800049
1452.906515	1080.599976
1453.430546	1074.0
1453.954523	1075.400024
1454.478444	1064.400024
1455.002311	1071.0
1455.526123	1074.199951
1456.049879	1074.199951
1456.573581	1063.800049
1457.097227	1073.599976
1457.620819	1070.0
1458.144356	1067.599976
1458.667837	1077.599976
1459.191264	1078.800049
1459.714636	1076.199951
1460.237952	1071.800049
1460.761214	1071.199951
1461.284421	1071.400024
1461.807573	1072.800049
1462.33067	1071.199951
1462.853712	1070.800049
1463.376699	1069.199951
1463.899632	1081.199951
1464.422509	1072.199951
1464.945331	1077.400024
1465.468099	1077.400024
1465.990811	1069.800049
1466.513469	1064.800049
1467.036071	1066.0
1467.558619	1073.199951
1468.081112	1067.0
1468.60355	1071.199951
1469.125933	1068.400024
1469.648261	1076.400024
1470.170534	1072.199951
1470.692752	1070.199951
1471.214916	1072.599976
1471.737024	1065.400024
1472.259078	1064.0
1472.781077	1072.199951
1473.303021	1055.199951
1473.82491	1062.400024
1474.346744	1064.400024
1474.868523	1052.599976
1475.390248	1062.0
1475.911917	1075.800049
1476.433532	1073.0
1476.955092	1075.800049
1477.476597	1065.199951
1477.998047	1063.0
1478.519442	1058.0
1479.040783	1070.199951
1479.562068	1047.0
1480.083299	1065.800049
1480.604475	1068.800049
1481.125596	1076.800049
1481.646663	1071.0
1482.167674	1070.599976
1482.688631	1061.599976
1483.209533	1058.199951
1483.73038	1067.800049
1484.251172	1052.400024
1484.771909	1065.400024
1485.292592	1070.0
1485.81322	1052.199951
1486.333793	1059.199951
1486.854311	1056.0
1487.374775	1070.400024
1487.895183	1069.199951
1488.415537	1060.0
1488.935836	1056.599976
1489.456081	1055.599976
1489.97627	1064.199951
1490.496405	1062.400024
1491.016485	1053.199951
1491.536511	1056.599976
1492.056481	1056.400024
1492.576397	1062.800049
1493.096258	1055.599976
1493.616064	1058.199951
1494.135816	1045.800049
1494.655513	1067.800049
1495.175155	1053.0
1495.694742	1061.599976
1496.214274	1056.599976
1496.733752	1058.0
1497.253175	1056.0
1497.772544	1064.0
1498.291858	1060.400024
1498.811116	1068.400024
1499.330321	1065.599976
1499.84947	1061.0
1500.368565	1054.800049
1500.887605	1050.800049
1501.406591	1045.199951
1501.925521	1056.199951
1502.444397	1054.599976
1502.963219	1051.400024
1503.481985	1049.199951
1504.000697	1054.599976
1504.519355	1050.800049
1505.037957	1054.0
1505.556505	1052.599976
1506.074999	1054.800049
1506.593437	1046.400024
1507.111821	1047.400024
1507.63015	1049.400024
1508.148425	1045.800049
1508.666645	1050.0
1509.18481	1052.199951
1509.702921	1050.599976
1510.220977	1055.0
1510.738979	1052.400024
1511.256925	1060.800049
1511.774817	1050.0
1512.292655	1049.199951
1512.810438	1058.400024
1513.328166	1049.400024
1513.84584	1053.199951
1514.363459	1049.599976
1514.881023	1055.0
1515.398533	1053.0
1515.915988	1054.199951
1516.433389	1054.0
1516.950734	1051.0
1517.468026	1059.800049
1517.985263	1048.800049
1518.502445	1050.400024
1519.019572	1049.0
1519.536645	1043.800049
1520.053664	1062.199951
1520.570628	1046.199951
1521.087537	1042.199951
1521.604392	1049.800049
1522.121192	1053.800049
1522.637937	1039.599976
1523.154628	1053.0
1523.671265	1051.199951
1524.187847	1054.0
1524.704374	1055.599976
1525.220847	1056.199951
1525.737265	1056.0
1526.253629	1038.0
1526.769938	1043.599976
1527.286192	1040.0
1527.802392	1050.400024
1528.318538	1045.400024
1528.834629	1043.400024
1529.350666	1045.400024
1529.866648	1041.800049
1530.382575	1054.0
1530.898448	1049.800049
1531.414266	1051.800049
1531.93003	1046.0
1532.44574	1037.599976
1532.961395	1052.800049
1533.476995	1044.0
1533.992541	1048.800049
1534.508033	1049.400024
1535.02347	1048.599976
1535.538852	1051.599976
1536.05418	1051.800049
1536.569454	1041.800049
1537.084673	1046.199951
1537.599837	1050.400024
1538.114947	1049.400024
1538.630003	1061.0
1539.145004	1054.800049
1539.659951	1047.400024
1540.174843	1039.199951
1540.689681	1034.199951
1541.204465	1041.800049
1541.719194	1042.199951
1542.233868	1054.199951
1542.748488	1041.400024
1543.263054	1037.199951
1543.777565	1057.400024
1544.292022	1040.199951
1544.806424	1052.199951
1545.320772	1044.0
1545.835066	1047.599976
1546.349305	1045.199951
1546.863489	1052.800049
1547.37762	1055.400024
1547.891696	1046.599976
1548.405717	1037.0
1548.919684	1046.800049
1549.433597	1045.599976
1549.947455	1050.599976
1550.461259	1051.800049
1550.975009	1046.199951
1551.488704	1036.800049
1552.002345	1051.0
1552.515931	1039.199951
1553.029463	1048.400024
1553.542941	1044.800049
1554.056364	1038.199951
1554.569733	1044.599976
1555.083048	1040.400024
1555.596308	1045.0
1556.109514	1044.0
1556.622665	1025.599976
1557.135762	1055.0
1557.648805	1038.0
1558.161794	1050.199951
1558.674728	1038.400024
1559.187608	1040.199951
1559.700433	1051.400024
1560.213205	1045.599976
1560.725921	1045.199951
1561.238584	1039.400024
1561.751192	1048.400024
1562.263746	1045.599976
1562.776246	1039.800049
1563.288691	1040.0
1563.801082	1047.800049
1564.313419	1054.800049
1564.825701	1044.199951
1565.337929	1048.599976
1565.850103	1043.199951
1566.362223	1044.0
1566.874288	1047.800049
1567.386299	1048.800049
1567.898256	1042.400024
1568.410158	1049.199951
1568.922007	1046.599976
1569.4338	1036.599976
1569.94554	1046.599976
1570.457226	1041.0
1570.968857	1043.800049
1571.480434	1050.199951
1571.991956	1049.599976
1572.503425	1032.599976
1573.014839	1056.599976
1573.526199	1040.0
1574.037505	1035.800049
1574.548756	1041.199951
1575.059953	1040.800049
1575.571096	1034.599976
1576.082185	1045.199951
1576.59322	1039.800049
1577.1042	1039.800049
1577.615126	1047.400024
1578.125998	1037.199951
1578.636816	1042.0
1579.14758	1036.0
1579.658289	1047.400024
1580.168944	1038.199951
1580.679545	1045.400024
1581.190092	1037.800049
1581.700585	1036.199951
1582.211023	1042.199951
1582.721407	1031.199951
1583.231737	1051.800049
1583.742013	1041.599976
1584.252235	1049.599976
1584.762403	1042.199951
1585.272516	1037.800049
1585.782575	1040.599976
1586.292581	1037.599976
1586.802532	1039.599976
1587.312428	1036.199951
1587.822271	1044.599976
1588.33206	1041.199951
1588.841794	1043.400024
1589.351474	1030.599976
1589.8611	1045.400024
1590.370672	1040.599976
1590.88019	1043.400024
1591.389654	1041.0
1591.899064	1039.199951
1592.408419	1047.400024
