1043.018714	993.7999878
1043.585098	1004.400024
1044.151424	1003.0
1044.717692	1003.799988
1045.283903	1000.400024
1045.850056	1003.799988
1046.416151	995.5999756
1046.982188	1004.0
1047.548167	998.4000244
1048.114089	998.0
1048.679953	1002.200012
1049.24576	1004.799988
1049.811509	998.7999878
1050.3772	999.0
1050.942833	1001.200012
1051.508408	992.7999878
1052.073926	998.4000244
1052.639387	994.7999878
1053.204789	1002.799988
1053.770134	998.2000122
1054.335421	1002.0
1054.900651	988.5999756
1055.465823	993.5999756
1056.030937	1004.400024
1056.595993	996.0
1057.160992	991.7999878
1057.725934	991.2000122
1058.290817	992.7999878
1058.855643	979.4000244
1059.420411	1000.799988
1059.985122	993.7999878
1060.549775	992.0
1061.114371	1000.799988
1061.678908	985.2000122
1062.243389	984.5999756
1062.807811	991.2000122
1063.372176	1002.0
1063.936483	997.2000122
1064.500733	992.0
1065.064925	994.0
1065.62906	990.5999756
1066.193137	1000.0
1066.757156	987.2000122
1067.321118	985.7999878
1067.885022	989.7999878
1068.448869	997.7999878
1069.012658	979.4000244
1069.57639	986.5999756
1070.140063	994.7999878
1070.70368	985.2000122
1071.267239	989.0
1071.83074	990.2000122
1072.394184	988.7999878
1072.95757	989.0
1073.520899	989.4000244
1074.08417	987.5999756
1074.647383	994.4000244
1075.21054	991.4000244
1075.773638	994.4000244
1076.336679	991.4000244
1076.899663	989.0
1077.462589	986.2000122
1078.025457	989.4000244
1078.588268	988.7999878
1079.151022	980.2000122
1079.713718	991.7999878
1080.276356	982.5999756
1080.838937	984.4000244
1081.401461	986.5999756
1081.963927	975.2000122
1082.526336	980.7999878
1083.088687	994.4000244
1083.650981	967.0
1084.213217	989.5999756
1084.775396	988.2000122
1085.337517	979.5999756
1085.899581	990.2000122
1086.461587	981.5999756
1087.023536	977.5999756
1087.585428	985.5999756
1088.147262	980.0
1088.709039	985.0
1089.270758	980.5999756
1089.83242	978.5999756
1090.394024	980.0
1090.955571	968.2000122
1091.517061	987.4000244
1092.078493	985.5999756
1093.201185	988.0
1093.762445	978.5999756
1094.323648	979.4000244
1094.884793	978.0
1095.445881	977.2000122
1096.006911	979.7999878
1096.567884	983.0
1097.1288	979.5999756
1097.689659	972.0
1098.25046	975.0
1098.811203	974.0
1099.37189	970.7999878
1099.932518	990.2000122
1100.49309	974.7999878
1101.053604	975.4000244
1101.614061	971.7999878
1102.174461	972.2000122
1102.734803	968.4000244
1103.295088	978.4000244
1103.855316	963.7999878
1104.415486	963.7999878
1104.975599	967.2000122
1105.535655	970.0
1106.095653	961.2000122
1106.655594	965.2000122
1107.215478	966.5999756
1107.775305	967.4000244
1108.335074	969.5999756
1108.894786	968.7999878
1109.45444	969.2000122
1110.014038	967.4000244
1110.573578	969.2000122
1111.133061	966.2000122
1111.692486	965.0
1112.251854	966.2000122
1112.811165	964.4000244
1113.370419	974.2000122
1113.929616	971.5999756
1114.488755	976.5999756
1115.047837	970.7999878
1115.606862	959.2000122
1116.16583	968.0
1116.72474	956.4000244
1117.283593	968.7999878
1117.842389	961.2000122
1118.401128	966.5999756
1118.959809	960.4000244
1119.518433	954.2000122
1120.077	959.4000244
1120.63551	961.2000122
1121.193963	962.4000244
1121.752358	964.7999878
1122.310697	959.7999878
1122.868978	955.7999878
1123.427202	964.5999756
1123.985368	955.5999756
1124.543478	956.5999756
1125.10153	959.5999756
1125.659526	957.7999878
1126.217464	950.4000244
1126.775345	956.4000244
1127.333168	965.0
1127.890935	960.0
1128.448644	960.0
1129.006297	967.7999878
1129.563892	954.4000244
1130.12143	958.2000122
1130.678911	961.5999756
1131.236335	957.5999756
1131.793701	958.4000244
1132.351011	955.5999756
1132.908263	957.7999878
1133.465458	957.5999756
1134.022597	958.2000122
1134.579678	963.4000244
1135.136702	948.2000122
1135.693669	946.5999756
1136.250578	962.4000244
1136.807431	959.7999878
1137.364227	967.2000122
1137.920965	965.2000122
1138.477647	950.2000122
1139.034271	949.0
1139.590839	957.2000122
1140.147349	957.7999878
1140.703802	955.7999878
1141.260198	946.4000244
1141.816537	955.0
1142.37282	949.5999756
1142.929045	945.4000244
1143.485213	956.0
1144.041323	951.7999878
1144.597377	957.0
1145.153374	954.2000122
1145.709314	949.5999756
1146.265197	947.2000122
1146.821023	961.0
1147.376792	966.4000244
1147.932503	960.2000122
1148.488158	953.2000122
1149.043756	944.7999878
1149.599297	952.7999878
1150.154781	957.2000122
1150.710207	951.2000122
1151.265577	960.7999878
1151.82089	953.0
1152.376146	961.2000122
1152.931345	956.2000122
1153.486487	959.0
1154.041572	961.2000122
1154.5966	953.2000122
1155.151571	959.7999878
1155.706485	959.7999878
1156.261342	956.4000244
1156.816142	954.2000122
1157.370885	945.5999756
1157.925572	953.2000122
1158.480201	951.2000122
1159.034774	954.0
1159.589289	955.2000122
1160.143748	955.2000122
1160.698149	955.4000244
1161.252494	958.4000244
1161.806782	951.5999756
1162.361013	956.7999878
1162.915187	952.7999878
1163.469304	943.7999878
1164.023364	946.0
1164.577368	953.5999756
1165.131314	949.0
1165.685204	949.7999878
1166.239036	946.0
1166.792812	955.0
1167.346531	946.4000244
1167.900193	949.5999756
1168.453798	942.7999878
1169.007347	952.4000244
1169.560838	953.0
1170.114273	961.0
1170.66765	951.2000122
1171.220971	951.4000244
1171.774235	956.4000244
1172.327443	949.7999878
1172.880593	945.0
1173.433687	946.2000122
1173.986723	943.2000122
1174.539703	948.5999756
1175.092626	947.4000244
1175.645493	945.4000244
1176.198302	953.4000244
1176.751055	941.7999878
1177.303751	948.0
1177.85639	946.7999878
1178.408972	948.2000122
1178.961498	946.5999756
1179.513966	948.5999756
1180.066378	945.0
1180.618733	945.0
1181.171032	944.7999878
1181.723273	939.0
1182.275458	939.7999878
1182.827586	947.2000122
1183.379657	944.5999756
1183.931672	947.2000122
1184.48363	935.4000244
1185.035531	945.2000122
1185.587375	943.4000244
1186.139162	951.0
1186.690893	942.4000244
1187.242567	943.2000122
1187.794184	939.4000244
1188.345745	942.5999756
1188.897249	939.7999878
1189.448696	948.0
1190.000086	944.7999878
1190.55142	933.2000122
1191.102697	929.2000122
1191.653918	945.2000122
1192.205081	945.4000244
1192.756188	950.0
1193.307238	955.4000244
1193.858232	939.0
1194.409169	939.7999878
1194.960049	942.7999878
1195.510872	948.7999878
1196.061639	946.2000122
1196.612349	942.0
1197.163003	947.2000122
1197.713599	934.4000244
1198.264139	939.4000244
1198.814623	939.7999878
1199.36505	942.5999756
1199.91542	939.2000122
1200.465734	931.7999878
1201.01599	934.7999878
1201.566191	924.4000244
1202.116334	948.0
1202.666421	934.7999878
1203.216452	934.5999756
1203.766425	936.4000244
1204.316343	939.0
1204.866203	946.0
1205.416007	936.0
1205.965754	932.0
1206.515445	936.0
1207.065079	939.2000122
1207.614657	934.2000122
1208.164177	935.5999756
1208.713642	937.2000122
1209.26305	932.2000122
1209.812401	932.0
1210.361695	930.4000244
1210.910933	932.4000244
1211.460115	935.5999756
1212.00924	929.4000244
1212.558308	936.7999878
1213.10732	933.7999878
1213.656275	937.7999878
1214.205174	939.0
1214.754016	935.0
1215.302801	935.4000244
1215.85153	939.2000122
1216.400203	947.4000244
1216.948819	927.5999756
1217.497378	930.5999756
1218.045881	934.7999878
1218.594327	926.2000122
1219.142717	930.2000122
1219.691051	924.7999878
1220.239327	925.0
1220.787548	928.4000244
1221.335712	933.7999878
1221.883819	932.5999756
1222.43187	942.0
1222.979864	929.0
1223.527802	931.4000244
1224.075683	930.0
1224.623508	927.2000122
1225.171277	929.4000244
1225.718989	926.5999756
1226.266644	938.0
1226.814243	929.7999878
1227.361786	937.7999878
1227.909272	923.4000244
1228.456702	928.7999878
1229.004075	932.0
1229.551392	920.0
1230.098652	923.2000122
1230.645856	934.2000122
1231.193003	929.2000122
1231.740094	927.2000122
1232.287129	930.7999878
1232.834107	934.7999878
1233.381029	939.7999878
1233.927894	926.4000244
1234.474703	930.0
1235.021455	939.5999756
1235.568151	934.0
1236.114791	927.5999756
1236.661374	926.0
1237.207901	927.4000244
1237.754372	933.2000122
1238.300786	936.7999878
1238.847144	930.4000244
1239.393445	925.4000244
1239.93969	932.4000244
1240.485879	929.0
1241.032011	935.7999878
1241.578087	927.5999756
1242.124106	930.0
1242.67007	924.2000122
1243.215976	928.7999878
1243.761827	926.7999878
1244.307621	927.4000244
1244.853359	925.7999878
1245.39904	932.5999756
1245.944665	922.4000244
1246.490234	932.4000244
1247.035746	928.0
1247.581203	932.2000122
1248.126602	931.7999878
1248.671946	932.5999756
1249.217233	923.5999756
1249.762464	924.2000122
1250.307638	926.0
1250.852757	920.4000244
1251.397819	925.0
1251.942824	932.2000122
1252.487774	928.0
1253.032667	934.0
1253.577503	924.4000244
1254.122284	933.2000122
1254.667008	930.7999878
1255.211676	917.4000244
1255.756288	932.7999878
1256.300843	920.0
1256.845342	929.4000244
1257.389785	926.2000122
1257.934172	919.0
1258.478502	935.2000122
1259.022776	925.5999756
1259.566994	934.0
1260.111156	942.7999878
1260.655261	927.5999756
1261.199311	926.5999756
1261.743304	933.2000122
1262.28724	920.0
1262.831121	926.4000244
1263.374945	929.5999756
1263.918713	925.0
1264.462425	928.7999878
1265.006081	949.0
1265.54968	967.7999878
1266.093223	945.7999878
1266.636711	938.2000122
1267.180141	927.0
1267.723516	933.0
1268.266835	929.4000244
1268.810097	916.7999878
1269.353303	931.5999756
1269.896453	920.7999878
1270.439547	932.0
1270.982584	927.7999878
1271.525566	929.0
1272.068491	925.4000244
1272.61136	933.2000122
1273.154173	921.4000244
1273.69693	922.0
1274.239631	923.4000244
1274.782275	921.0
1275.324864	923.4000244
1275.867396	928.0
1276.409872	920.7999878
1276.952292	925.5999756
1277.494656	931.2000122
1278.036964	924.2000122
1278.579215	927.2000122
1279.121411	920.4000244
1279.66355	920.7999878
1280.205634	930.0
1280.747661	930.0
1281.289632	922.0
1281.831547	920.4000244
1282.373406	932.4000244
1282.915209	918.2000122
1283.456955	934.4000244
1283.998646	937.4000244
1284.540281	988.4000244
1285.081859	1155.800049
1285.623381	1561.400024
1286.164848	1339.599976
1286.706258	1010.0
1287.247612	947.4000244
1287.788911	928.5999756
1288.330153	929.4000244
1288.871339	918.0
1289.412469	917.7999878
1289.953543	922.0
1290.494561	930.4000244
1291.035523	923.0
1291.576428	916.2000122
1292.117278	924.2000122
1292.658072	926.0
1293.19881	918.7999878
1293.739492	909.5999756
1294.280118	922.5999756
1294.820687	915.7999878
1295.361201	915.2000122
1295.901659	911.2000122
1296.442061	917.7999878
1296.982406	915.5999756
1297.522696	906.4000244
1298.06293	920.4000244
1298.603108	914.7999878
1299.143229	913.0
1299.683295	915.4000244
1300.223305	907.2000122
1300.763259	917.4000244
1301.303157	911.4000244
1301.842999	914.0
1302.382785	921.5999756
1302.922515	909.7999878
1303.462189	912.2000122
1304.001807	909.0
1304.541369	916.2000122
1305.080875	917.0
1305.620326	912.0
1306.15972	916.7999878
1306.699058	922.5999756
1307.238341	921.5999756
1307.777567	916.4000244
1308.316738	916.2000122
1308.855853	914.2000122
1309.394912	912.5999756
1309.933915	910.5999756
1310.472862	916.4000244
1311.011753	912.0
1311.550588	916.5999756
1312.089367	916.7999878
1312.62809	916.0
1313.166758	918.0
1313.70537	918.5999756
1314.243925	912.0
1314.782425	915.7999878
1315.320869	917.5999756
1315.859257	902.5999756
1316.397589	916.4000244
1316.935866	913.2000122
1317.474086	915.4000244
1318.012251	906.5999756
1318.55036	915.4000244
1319.088413	909.0
1319.62641	919.5999756
1320.164351	907.0
1320.702236	912.0
1321.240066	905.0
1321.777839	910.5999756
1322.315557	905.2000122
1322.853219	909.7999878
1323.390826	906.7999878
1323.928376	919.2000122
1324.465871	907.7999878
1325.003309	910.7999878
1325.540692	909.2000122
1326.07802	911.2000122
1326.615291	911.5999756
1327.152506	911.2000122
1327.689666	905.7999878
1328.22677	913.2000122
1328.763818	908.4000244
1329.300811	910.4000244
1329.837747	908.5999756
1330.374628	912.5999756
1330.911453	909.5999756
1331.448222	913.5999756
1331.984936	913.2000122
1332.521594	901.4000244
1333.058196	905.7999878
1333.594742	908.7999878
1334.131232	912.7999878
1334.667667	905.4000244
1335.204046	907.7999878
1335.740369	895.5999756
1336.276637	908.7999878
1336.812848	912.5999756
1337.349004	908.0
1337.885105	913.0
1338.421149	908.4000244
1338.957138	905.5999756
1339.493071	893.2000122
1340.028949	902.5999756
1340.56477	901.4000244
1341.100536	900.2000122
1341.636246	898.7999878
1342.171901	914.4000244
1342.7075	908.7999878
1343.243043	909.5999756
1343.77853	911.0
1344.313962	913.5999756
1344.849338	895.0
1345.384659	904.4000244
1345.919923	906.7999878
1346.455133	910.2000122
1346.990286	906.5999756
1347.525384	906.4000244
1348.060426	911.2000122
1348.595412	905.7999878
1349.130343	902.0
1349.665218	899.5999756
1350.200037	912.4000244
1350.734801	901.7999878
1351.269509	907.5999756
1351.804162	904.2000122
1352.338758	904.2000122
1352.8733	903.7999878
1353.407785	901.2000122
1353.942215	903.5999756
1354.476589	900.0
1355.010908	904.4000244
1355.545171	914.7999878
1356.079379	904.0
1356.61353	907.2000122
1357.147627	906.2000122
1357.681667	903.4000244
1358.215652	898.5999756
1358.749582	900.7999878
1359.283456	907.2000122
1359.817274	902.4000244
1360.351037	899.7999878
1360.884744	902.7999878
1361.418395	903.4000244
1361.951991	905.7999878
1362.485531	905.5999756
1363.019016	900.4000244
1363.552445	900.0
1364.085819	902.4000244
1364.619137	909.7999878
1365.1524	892.2000122
1365.685607	894.4000244
1366.218758	910.2000122
1366.751854	905.5999756
1367.284894	905.0
1367.817879	899.5999756
1368.350808	907.4000244
1368.883682	900.0
1369.4165	901.7999878
1369.949263	900.5999756
1370.48197	916.7999878
1371.014622	914.2000122
1371.547218	907.7999878
1372.079758	902.7999878
1372.612244	904.4000244
1373.144673	894.7999878
1373.677047	906.2000122
1374.209366	905.4000244
1374.741629	899.4000244
1375.273836	901.2000122
1375.805989	905.0
1376.338085	899.4000244
1376.870126	904.2000122
1377.402112	899.0
1377.934042	908.2000122
1378.465917	900.4000244
1378.997736	898.2000122
1379.5295	905.7999878
1380.061208	893.0
1380.592861	893.7999878
1381.124459	892.2000122
1381.656	908.4000244
1382.187487	900.5999756
1382.718918	908.0
1383.250294	906.7999878
1383.781614	899.0
1384.312879	910.5999756
1384.844088	906.7999878
1385.375242	903.2000122
1385.90634	906.4000244
1386.437383	912.5999756
1386.968371	922.5999756
1387.499303	936.7999878
1388.03018	1029.199951
1388.561001	1587.800049
1389.091767	1933.800049
1389.622478	1159.199951
1390.153133	949.0
1390.683733	917.4000244
1391.214277	910.5999756
1391.744766	908.4000244
1392.2752	901.0
1392.805578	891.5999756
1393.335901	906.5999756
1393.866168	913.0
1394.396381	906.5999756
1394.926537	894.5999756
1395.456639	900.0
1395.986685	892.0
1396.516675	894.2000122
1397.046611	897.4000244
1397.576491	896.2000122
1398.106315	899.2000122
1398.636084	899.4000244
1399.165798	898.0
1399.695457	895.2000122
1400.22506	896.7999878
1400.754608	900.7999878
1401.284101	894.2000122
1401.813538	891.4000244
1402.34292	893.4000244
1402.872247	895.7999878
1403.401518	895.0
1403.930734	896.2000122
1404.459895	899.5999756
1404.989	892.0
1405.51805	907.2000122
1406.047045	892.7999878
1406.575984	905.4000244
1407.104869	894.4000244
1407.633697	902.7999878
1408.162471	895.4000244
1408.691189	904.4000244
1409.219852	906.2000122
1409.74846	945.7999878
1410.277013	984.0
1410.80551	937.2000122
1411.333952	904.2000122
1411.862339	902.2000122
1412.39067	894.2000122
1412.918946	902.7999878
1413.447167	899.4000244
1413.975333	898.0
1414.503444	904.0
1415.031499	899.5999756
1415.559499	903.5999756
1416.087444	892.5999756
1416.615333	892.0
1417.143167	896.4000244
1417.670947	896.0
1418.19867	895.7999878
1418.726339	885.5999756
1419.253952	899.4000244
1419.781511	894.2000122
1420.309014	893.4000244
1420.836461	895.5999756
1421.363854	893.4000244
1421.891191	885.5999756
1422.418474	896.2000122
1422.945701	903.5999756
1423.472872	896.0
1423.999989	899.5999756
1424.52705	898.7999878
1425.054057	894.0
1425.581008	903.7999878
1426.107904	894.7999878
1426.634745	901.4000244
1427.16153	894.2000122
1427.688261	893.4000244
1428.214936	899.5999756
1428.741556	898.2000122
1429.268121	896.7999878
1429.794631	893.7999878
1430.321085	894.0
1430.847485	890.5999756
1431.373829	886.7999878
1431.900118	884.0
1432.426353	892.2000122
1432.952532	892.4000244
1433.478655	887.2000122
1434.004724	887.0
1434.530738	887.5999756
1435.056696	894.4000244
1435.5826	886.2000122
1436.108448	889.5999756
1436.634241	888.0
1437.159979	894.2000122
1437.685662	892.4000244
1438.21129	884.0
1438.736863	898.5999756
1439.262381	881.4000244
1439.787843	887.7999878
1440.313251	885.7999878
1440.838603	892.4000244
1441.3639	891.0
1441.889143	882.0
1442.41433	889.2000122
1442.939462	880.5999756
1443.464539	886.2000122
1443.989561	891.0
1444.514528	890.2000122
1445.03944	890.7999878
1445.564297	890.7999878
1446.089099	895.7999878
1446.613846	882.7999878
1447.138537	899.7999878
1447.663174	889.2000122
1448.187756	890.5999756
1448.712282	893.0
1449.236754	884.0
1449.761171	888.2000122
1450.285532	889.4000244
1450.809839	886.5999756
1451.33409	892.4000244
1451.858287	886.5999756
1452.382428	881.2000122
1452.906515	886.0
1453.430546	895.7999878
1453.954523	888.5999756
1454.478444	885.2000122
1455.002311	883.4000244
1455.526123	883.7999878
1456.049879	888.5999756
1456.573581	883.5999756
1457.097227	883.7999878
1457.620819	888.7999878
1458.144356	891.2000122
1458.667837	882.4000244
1459.191264	893.2000122
1459.714636	883.0
1460.237952	882.4000244
1460.761214	882.4000244
1461.284421	884.7999878
1461.807573	887.7999878
1462.33067	885.5999756
1462.853712	891.5999756
1463.376699	882.5999756
1463.899632	887.5999756
1464.422509	883.2000122
1464.945331	889.5999756
1465.468099	886.5999756
1465.990811	883.7999878
1466.513469	884.2000122
1467.036071	881.5999756
1467.558619	880.0
1468.081112	888.7999878
1468.60355	879.4000244
1469.125933	876.4000244
1469.648261	876.0
1470.170534	877.7999878
1470.692752	888.7999878
1471.214916	886.4000244
1471.737024	886.2000122
1472.259078	878.7999878
1472.781077	885.5999756
1473.303021	882.0
1473.82491	876.5999756
1474.346744	888.0
1474.868523	887.2000122
1475.390248	879.2000122
1475.911917	881.2000122
1476.433532	880.0
1476.955092	879.7999878
1477.476597	882.2000122
1477.998047	883.0
1478.519442	878.7999878
1479.040783	885.4000244
1479.562068	881.2000122
1480.083299	884.0
1480.604475	878.4000244
1481.125596	880.2000122
1481.646663	882.2000122
1482.167674	878.5999756
1482.688631	877.4000244
1483.209533	877.7999878
1483.73038	885.2000122
1484.251172	881.7999878
1484.771909	884.0
1485.292592	882.4000244
1485.81322	882.4000244
1486.333793	881.2000122
1486.854311	872.2000122
1487.374775	882.7999878
1487.895183	879.7999878
1488.415537	869.4000244
1488.935836	882.5999756
1489.456081	881.0
1489.97627	877.5999756
1490.496405	877.4000244
1491.016485	878.0
1491.536511	876.2000122
1492.056481	885.0
1492.576397	887.7999878
1493.096258	882.2000122
1493.616064	880.2000122
1494.135816	893.4000244
1494.655513	887.5999756
1495.175155	886.2000122
1495.694742	880.2000122
1496.214274	877.4000244
1496.733752	879.4000244
1497.253175	878.0
1497.772544	877.5999756
1498.291858	888.5999756
1498.811116	880.5999756
1499.330321	879.0
1499.84947	881.7999878
1500.368565	875.0
1500.887605	876.0
1501.406591	883.4000244
1501.925521	875.2000122
1502.444397	876.7999878
1502.963219	877.7999878
1503.481985	882.2000122
1504.000697	879.7999878
1504.519355	874.2000122
1505.037957	874.5999756
1505.556505	877.5999756
1506.074999	880.5999756
1506.593437	864.4000244
1507.111821	876.5999756
1507.63015	878.5999756
1508.148425	870.2000122
1508.666645	879.5999756
1509.18481	872.0
1509.702921	872.2000122
1510.220977	873.4000244
1510.738979	887.5999756
1511.256925	881.0
1511.774817	871.0
1512.292655	875.0
1512.810438	883.0
1513.328166	873.7999878
1513.84584	873.2000122
1514.363459	868.7999878
1514.881023	876.0
1515.398533	877.7999878
1515.915988	869.7999878
1516.433389	869.4000244
1516.950734	874.7999878
1517.468026	875.2000122
1517.985263	875.2000122
1518.502445	884.0
1519.019572	880.7999878
1519.536645	875.5999756
1520.053664	876.7999878
1520.570628	880.7999878
1521.087537	876.0
1521.604392	885.7999878
1522.121192	873.7999878
1522.637937	876.5999756
1523.154628	870.2000122
1523.671265	868.4000244
1524.187847	876.7999878
1524.704374	874.5999756
1525.220847	877.5999756
1525.737265	879.7999878
1526.253629	868.4000244
1526.769938	870.4000244
1527.286192	874.7999878
1527.802392	875.4000244
1528.318538	871.5999756
1528.834629	865.7999878
1529.350666	875.0
1529.866648	879.0
1530.382575	884.0
1530.898448	869.0
1531.414266	875.4000244
1531.93003	874.0
1532.44574	877.5999756
1532.961395	872.2000122
1533.476995	872.4000244
1533.992541	876.2000122
1534.508033	872.2000122
1535.02347	879.2000122
1535.538852	876.2000122
1536.05418	876.2000122
1536.569454	872.4000244
1537.084673	878.5999756
1537.599837	869.4000244
1538.114947	869.7999878
1538.630003	871.5999756
1539.145004	884.0
1539.659951	874.5999756
1540.174843	880.7999878
1540.689681	868.0
1541.204465	876.2000122
1541.719194	866.2000122
1542.233868	876.2000122
1542.748488	873.0
1543.263054	874.0
1543.777565	874.5999756
1544.292022	873.4000244
1544.806424	872.7999878
1545.320772	868.5999756
1545.835066	869.4000244
1546.349305	874.5999756
1546.863489	867.7999878
1547.37762	865.0
1547.891696	870.4000244
1548.405717	870.7999878
1548.919684	871.7999878
1549.433597	872.7999878
1549.947455	873.2000122
1550.461259	866.4000244
1550.975009	865.0
1551.488704	871.5999756
1552.002345	862.4000244
1552.515931	862.5999756
1553.029463	876.0
1553.542941	871.7999878
1554.056364	874.0
1554.569733	862.0
1555.083048	866.0
1555.596308	869.5999756
1556.109514	875.7999878
1556.622665	868.0
1557.135762	877.0
1557.648805	878.4000244
1558.161794	875.5999756
1558.674728	870.4000244
1559.187608	878.2000122
1559.700433	877.7999878
1560.213205	865.7999878
1560.725921	875.4000244
1561.238584	872.7999878
1561.751192	873.4000244
1562.263746	868.7999878
1562.776246	866.7999878
1563.288691	868.0
1563.801082	875.5999756
1564.313419	863.5999756
1564.825701	873.0
1565.337929	880.4000244
1565.850103	864.7999878
1566.362223	869.5999756
1566.874288	876.0
1567.386299	865.7999878
1567.898256	866.4000244
1568.410158	877.0
1568.922007	869.7999878
1569.4338	870.0
1569.94554	868.5999756
1570.457226	863.5999756
1570.968857	872.5999756
1571.480434	870.2000122
1571.991956	873.5999756
1572.503425	876.0
1573.014839	875.5999756
1573.526199	870.2000122
1574.037505	869.2000122
1574.548756	879.5999756
1575.059953	874.2000122
1575.571096	875.5999756
1576.082185	875.7999878
1576.59322	866.7999878
1577.1042	871.4000244
1577.615126	869.2000122
1578.125998	871.2000122
1578.636816	871.7999878
1579.14758	870.4000244
1579.658289	878.0
1580.168944	871.4000244
1580.679545	867.0
1581.190092	872.2000122
1581.700585	868.5999756
1582.211023	871.5999756
1582.721407	865.0
1583.231737	872.0
1583.742013	871.5999756
1584.252235	878.4000244
1584.762403	870.2000122
1585.272516	862.7999878
1585.782575	879.5999756
1586.292581	872.4000244
1586.802532	868.4000244
1587.312428	871.4000244
1587.822271	873.5999756
1588.33206	876.4000244
1588.841794	861.0
1589.351474	869.4000244
1589.8611	869.5999756
1590.370672	868.2000122
1590.88019	863.2000122
1591.389654	867.0
1591.899064	870.4000244
1592.408419	864.7999878
