1042.452273	674.7999878
1043.018714	668.4000244
1043.585098	671.7999878
1044.151424	674.5999756
1044.717692	672.0
1045.283903	668.4000244
1045.850056	669.5999756
1046.416151	670.0
1046.982188	670.2000122
1047.548167	670.5999756
1048.114089	671.0
1048.679953	668.5999756
1049.24576	667.7999878
1049.811509	667.7999878
1050.3772	668.0
1050.942833	670.7999878
1051.508408	665.4000244
1052.073926	665.2000122
1052.639387	665.7999878
1053.204789	667.0
1053.770134	664.5999756
1054.335421	664.7999878
1054.900651	666.5999756
1055.465823	665.7999878
1056.030937	666.7999878
1056.595993	663.4000244
1057.160992	668.7999878
1057.725934	664.5999756
1058.290817	665.5999756
1058.855643	666.2000122
1059.420411	662.5999756
1059.985122	665.4000244
1060.549775	662.7999878
1061.114371	666.2000122
1061.678908	663.4000244
1062.243389	662.5999756
1062.807811	665.7999878
1063.372176	665.7999878
1063.936483	664.7999878
1064.500733	665.7999878
1065.064925	662.0
1065.62906	664.2000122
1066.193137	663.7999878
1066.757156	665.0
1067.321118	666.2000122
1067.885022	663.2000122
1068.448869	665.0
1069.012658	665.7999878
1069.57639	666.0
1070.140063	671.5999756
1070.70368	663.2000122
1071.267239	665.7999878
1071.83074	663.0
1072.394184	665.4000244
1072.95757	663.7999878
1073.520899	665.5999756
1074.08417	664.5999756
1074.647383	665.4000244
1075.21054	664.4000244
1075.773638	662.2000122
1076.336679	664.2000122
1076.899663	663.0
1077.462589	665.5999756
1078.025457	663.2000122
1078.588268	665.7999878
1079.151022	664.0
1079.713718	663.7999878
1080.276356	664.5999756
1080.838937	661.5999756
1081.401461	663.4000244
1081.963927	665.4000244
1082.526336	663.5999756
1083.088687	663.7999878
1083.650981	665.0
1084.213217	663.7999878
1084.775396	664.4000244
1085.337517	665.4000244
1085.899581	663.0
1086.461587	663.2000122
1087.023536	663.2000122
1087.585428	665.2000122
1088.147262	662.0
1088.709039	664.0
1089.270758	663.2000122
1089.83242	662.5999756
1090.394024	666.4000244
1090.955571	661.4000244
1091.517061	662.0
1092.078493	663.7999878
1092.639868	662.5999756
1093.201185	663.5999756
1093.762445	662.2000122
1094.323648	663.0
1094.884793	662.2000122
1095.445881	663.4000244
1096.006911	664.0
1096.567884	665.2000122
1097.1288	668.5999756
1097.689659	664.5999756
1098.25046	666.2000122
1098.811203	658.2000122
1099.37189	663.0
1099.932518	663.4000244
1100.49309	662.4000244
1101.053604	663.5999756
1101.614061	665.5999756
1102.174461	663.4000244
1102.734803	661.5999756
1103.295088	662.4000244
1103.855316	663.0
1104.415486	661.7999878
1104.975599	663.2000122
1105.535655	663.7999878
1106.095653	664.0
1106.655594	662.7999878
1107.215478	664.2000122
1107.775305	664.4000244
1108.335074	662.7999878
1108.894786	664.0
1109.45444	664.2000122
1110.014038	660.7999878
1110.573578	663.7999878
1111.133061	663.0
1111.692486	662.0
1112.251854	665.4000244
1112.811165	664.2000122
1113.370419	665.2000122
1113.929616	660.0
1114.488755	661.7999878
1115.047837	663.0
1115.606862	661.4000244
1116.16583	662.7999878
1116.72474	663.5999756
1117.283593	665.0
1117.842389	664.2000122
1118.401128	662.5999756
1118.959809	662.2000122
1119.518433	663.0
1120.077	663.5999756
1120.63551	662.4000244
1121.193963	663.2000122
1121.752358	663.0
1122.310697	663.2000122
1122.868978	663.7999878
1123.427202	661.2000122
1123.985368	662.2000122
1124.543478	666.2000122
1125.10153	662.5999756
1125.659526	661.5999756
1126.217464	661.7999878
1126.775345	660.2000122
1127.333168	662.4000244
1127.890935	662.4000244
1128.448644	663.4000244
1129.006297	662.4000244
1129.563892	665.0
1130.12143	662.7999878
1130.678911	664.5999756
1131.236335	662.2000122
1131.793701	664.0
1132.351011	664.7999878
1132.908263	663.2000122
1133.465458	662.4000244
1134.022597	664.5999756
1134.579678	664.0
1135.136702	664.2000122
1135.693669	664.2000122
1136.250578	664.5999756
1136.807431	664.2000122
1137.364227	663.7999878
1137.920965	661.4000244
1138.477647	662.5999756
1139.034271	663.4000244
1139.590839	665.7999878
1140.147349	664.2000122
1140.703802	664.0
1141.260198	664.7999878
1141.816537	662.7999878
1142.37282	662.5999756
1142.929045	662.4000244
1143.485213	664.0
1144.041323	661.7999878
1144.597377	665.0
1145.153374	663.4000244
1145.709314	662.2000122
1146.265197	663.7999878
1146.821023	663.2000122
1147.376792	663.7999878
1147.932503	661.7999878
1148.488158	663.4000244
1149.043756	664.4000244
1149.599297	662.0
1150.154781	664.4000244
1150.710207	664.2000122
1151.265577	664.7999878
1151.82089	664.2000122
1152.376146	662.4000244
1152.931345	662.0
1153.486487	662.4000244
1154.041572	663.5999756
1154.5966	663.2000122
1155.151571	664.7999878
1155.706485	661.0
1156.261342	664.5999756
1156.816142	663.7999878
1157.370885	667.2000122
1157.925572	663.2000122
1158.480201	660.5999756
1159.034774	664.7999878
1159.589289	663.2000122
1160.143748	661.4000244
1160.698149	663.5999756
1161.252494	663.5999756
1161.806782	662.7999878
1162.361013	666.2000122
1162.915187	662.5999756
1163.469304	662.7999878
1164.023364	664.4000244
1164.577368	662.7999878
1165.131314	661.7999878
1165.685204	661.5999756
1166.239036	663.4000244
1166.792812	664.0
1167.346531	663.7999878
1167.900193	659.4000244
1168.453798	665.2000122
1169.007347	661.7999878
1169.560838	663.5999756
1170.114273	663.4000244
1170.66765	668.0
1171.220971	662.5999756
1171.774235	663.5999756
1172.327443	662.0
1172.880593	662.7999878
1173.433687	663.0
1173.986723	663.7999878
1174.539703	661.7999878
1175.092626	663.7999878
1175.645493	664.4000244
1176.198302	664.0
1176.751055	663.0
1177.303751	665.2000122
1177.85639	663.5999756
1178.408972	663.5999756
1178.961498	664.4000244
1179.513966	664.4000244
1180.066378	660.5999756
1180.618733	663.4000244
1181.171032	663.4000244
1181.723273	661.5999756
1182.275458	664.2000122
1182.827586	661.4000244
1183.379657	664.2000122
1183.931672	664.2000122
1184.48363	661.7999878
1185.035531	661.2000122
1185.587375	663.2000122
1186.139162	663.0
1186.690893	661.2000122
1187.242567	662.5999756
1187.794184	662.4000244
1188.345745	664.2000122
1188.897249	662.4000244
1189.448696	660.7999878
1190.000086	663.0
1190.55142	663.5999756
1191.102697	662.5999756
1191.653918	663.7999878
1192.205081	663.2000122
1192.756188	660.7999878
1193.307238	675.5999756
1193.858232	664.2000122
1194.409169	663.2000122
1194.960049	662.0
1195.510872	663.7999878
1196.061639	666.7999878
1196.612349	664.4000244
1197.163003	683.4000244
1197.713599	926.0
1198.264139	664.7999878
1198.814623	663.0
1199.36505	662.7999878
1199.91542	665.7999878
1200.465734	663.7999878
1201.01599	663.2000122
1201.566191	663.7999878
1202.116334	662.0
1202.666421	660.0
1203.216452	662.0
1203.766425	662.2000122
1204.316343	662.4000244
1204.866203	666.2000122
1205.416007	662.4000244
1205.965754	662.2000122
1206.515445	662.4000244
1207.065079	665.5999756
1207.614657	663.2000122
1208.164177	664.4000244
1208.713642	660.5999756
1209.26305	665.2000122
1209.812401	665.4000244
1210.361695	663.4000244
1210.910933	665.0
1211.460115	665.5999756
1212.00924	665.5999756
1212.558308	664.7999878
1213.10732	663.2000122
1213.656275	664.2000122
1214.205174	663.7999878
1214.754016	664.2000122
1215.302801	666.0
1215.85153	664.4000244
1216.400203	665.4000244
1216.948819	663.2000122
1217.497378	663.0
1218.045881	663.5999756
1218.594327	665.0
1219.142717	663.5999756
1219.691051	664.2000122
1220.239327	664.4000244
1220.787548	663.4000244
1221.335712	665.2000122
1221.883819	664.0
1222.43187	665.7999878
1222.979864	662.2000122
1223.527802	664.5999756
1224.075683	666.2000122
1224.623508	662.5999756
1225.171277	665.4000244
1225.718989	666.0
1226.266644	664.5999756
1226.814243	666.0
1227.361786	664.0
1227.909272	667.4000244
1228.456702	666.2000122
1229.004075	664.0
1229.551392	667.2000122
1230.098652	664.2000122
1230.645856	664.0
1231.193003	664.5999756
1231.740094	664.5999756
1232.287129	666.7999878
1232.834107	665.0
1233.381029	664.5999756
1233.927894	668.2000122
1234.474703	665.5999756
1235.021455	667.0
1235.568151	664.5999756
1236.114791	665.0
1236.661374	666.2000122
1237.207901	665.4000244
1237.754372	663.7999878
1238.300786	665.4000244
1238.847144	664.4000244
1239.393445	665.5999756
1239.93969	663.5999756
1240.485879	667.5999756
1241.032011	664.2000122
1241.578087	664.0
1242.124106	665.4000244
1242.67007	665.0
1243.215976	665.5999756
1243.761827	666.7999878
1244.307621	666.4000244
1244.853359	664.2000122
1245.39904	666.5999756
1245.944665	668.0
1246.490234	664.4000244
1247.035746	665.5999756
1247.581203	665.4000244
1248.126602	667.5999756
1248.671946	666.5999756
1249.217233	665.0
1249.762464	667.5999756
1250.307638	670.5999756
1250.852757	666.2000122
1251.397819	665.7999878
1251.942824	665.4000244
1252.487774	665.7999878
1253.032667	664.2000122
1253.577503	666.7999878
1254.122284	665.2000122
1254.667008	663.0
1255.211676	668.2000122
1255.756288	665.5999756
1256.300843	664.5999756
1256.845342	664.2000122
1257.389785	666.2000122
1257.934172	665.4000244
1258.478502	666.4000244
1259.022776	666.7999878
1259.566994	671.7999878
1260.111156	680.7999878
1260.655261	667.0
1261.199311	665.7999878
1261.743304	669.0
1262.28724	669.2000122
1262.831121	667.7999878
1263.374945	670.2000122
1263.918713	676.5999756
1264.462425	681.7999878
1265.006081	701.4000244
1265.54968	711.4000244
1266.093223	688.2000122
1266.636711	675.4000244
1267.180141	670.4000244
1267.723516	669.2000122
1268.266835	669.2000122
1268.810097	666.2000122
1269.353303	667.2000122
1269.896453	667.5999756
1270.439547	665.5999756
1270.982584	667.4000244
1271.525566	665.7999878
1272.068491	664.4000244
1272.61136	664.5999756
1273.154173	664.2000122
1273.69693	667.4000244
1274.239631	665.0
1274.782275	666.2000122
1275.324864	666.7999878
1275.867396	666.4000244
1276.409872	667.4000244
1276.952292	664.4000244
1277.494656	666.5999756
1278.036964	666.4000244
1278.579215	668.0
1279.121411	667.2000122
1279.66355	668.2000122
1280.205634	667.2000122
1280.747661	670.0
1281.289632	669.0
1281.831547	672.0
1282.373406	673.5999756
1282.915209	677.7999878
1283.456955	690.4000244
1283.998646	708.7999878
1284.540281	769.7999878
1285.081859	1020.799988
1285.623381	1409.199951
1286.164848	1059.0
1286.706258	764.2000122
1287.247612	700.0
1287.788911	680.4000244
1288.330153	677.0
1288.871339	671.5999756
1289.412469	671.4000244
1289.953543	669.7999878
1290.494561	667.4000244
1291.035523	671.2000122
1291.576428	664.2000122
1292.117278	667.0
1292.658072	667.4000244
1293.19881	665.4000244
1293.739492	667.0
1294.280118	667.4000244
1294.820687	667.4000244
1295.361201	667.2000122
1295.901659	664.0
1296.442061	666.2000122
1296.982406	666.5999756
1297.522696	665.5999756
1298.06293	664.0
1298.603108	664.7999878
1299.143229	663.4000244
1299.683295	664.0
1300.223305	665.5999756
1300.763259	667.4000244
1301.303157	666.7999878
1301.842999	669.0
1302.382785	664.0
1302.922515	664.5999756
1303.462189	667.0
1304.001807	665.4000244
1304.541369	668.4000244
1305.080875	665.5999756
1305.620326	667.0
1306.15972	662.7999878
1306.699058	664.4000244
1307.238341	665.7999878
1307.777567	664.5999756
1308.316738	666.7999878
1308.855853	665.7999878
1309.394912	664.4000244
1309.933915	664.2000122
1310.472862	664.4000244
1311.011753	665.2000122
1311.550588	665.0
1312.089367	666.0
1312.62809	664.5999756
1313.166758	663.7999878
1313.70537	666.2000122
1314.243925	664.4000244
1314.782425	664.5999756
1315.320869	663.2000122
1315.859257	663.7999878
1316.397589	666.7999878
1316.935866	666.2000122
1317.474086	667.5999756
1318.012251	664.4000244
1318.55036	663.5999756
1319.088413	665.2000122
1319.62641	666.5999756
1320.164351	667.7999878
1320.702236	665.4000244
1321.240066	663.0
1321.777839	666.0
1322.315557	662.5999756
1322.853219	664.4000244
1323.390826	664.5999756
1323.928376	667.5999756
1324.465871	665.7999878
1325.003309	663.5999756
1325.540692	663.2000122
1326.07802	665.2000122
1326.615291	664.2000122
1327.152506	662.4000244
1327.689666	664.2000122
1328.22677	661.5999756
1328.763818	664.2000122
1329.300811	662.4000244
1329.837747	666.7999878
1330.374628	665.2000122
1330.911453	664.7999878
1331.448222	663.5999756
1331.984936	667.2000122
1332.521594	664.5999756
1333.058196	663.0
1333.594742	666.7999878
1334.131232	665.4000244
1334.667667	663.2000122
1335.204046	664.5999756
1335.740369	665.5999756
1336.276637	664.5999756
1336.812848	665.4000244
1337.349004	665.5999756
1337.885105	665.5999756
1338.421149	663.5999756
1338.957138	666.4000244
1339.493071	665.2000122
1340.028949	664.4000244
1340.56477	664.0
1341.100536	665.7999878
1341.636246	663.5999756
1342.171901	664.7999878
1342.7075	667.0
1343.243043	661.2000122
1343.77853	665.7999878
1344.313962	664.4000244
1344.849338	664.2000122
1345.384659	666.2000122
1345.919923	666.2000122
1346.455133	665.2000122
1346.990286	664.0
1347.525384	665.5999756
1348.060426	665.0
1348.595412	662.7999878
1349.130343	667.4000244
1349.665218	666.2000122
1350.200037	665.7999878
1350.734801	665.2000122
1351.269509	666.5999756
1351.804162	664.5999756
1352.338758	666.2000122
1352.8733	666.2000122
1353.407785	666.4000244
1353.942215	665.5999756
1354.476589	663.7999878
1355.010908	664.7999878
1355.545171	664.7999878
1356.079379	665.7999878
1356.61353	664.5999756
1357.147627	662.2000122
1357.681667	665.2000122
1358.215652	667.2000122
1358.749582	666.4000244
1359.283456	665.2000122
1359.817274	666.4000244
1360.351037	663.4000244
1360.884744	665.5999756
1361.418395	665.4000244
1361.951991	665.0
1362.485531	667.7999878
1363.019016	664.7999878
1363.552445	663.5999756
1364.085819	667.0
1364.619137	665.4000244
1365.1524	664.2000122
1365.685607	664.2000122
1366.218758	668.4000244
1366.751854	670.2000122
1367.284894	665.2000122
1367.817879	666.2000122
1368.350808	669.2000122
1368.883682	664.4000244
1369.4165	668.0
1369.949263	669.0
1370.48197	682.7999878
1371.014622	676.2000122
1371.547218	667.5999756
1372.079758	666.2000122
1372.612244	663.7999878
1373.144673	667.5999756
1373.677047	663.0
1374.209366	668.0
1374.741629	664.2000122
1375.273836	667.5999756
1375.805989	667.2000122
1376.338085	667.4000244
1376.870126	667.0
1377.402112	666.5999756
1377.934042	668.2000122
1378.465917	666.2000122
1378.997736	667.4000244
1379.5295	669.4000244
1380.061208	665.5999756
1380.592861	668.2000122
1381.124459	667.7999878
1381.656	667.7999878
1382.187487	668.4000244
1382.718918	670.0
1383.250294	669.5999756
1383.781614	670.2000122
1384.312879	671.4000244
1384.844088	675.0
1385.375242	674.7999878
1385.90634	680.2000122
1386.437383	691.2000122
1386.968371	696.5999756
1387.499303	728.0
1388.03018	865.5999756
1388.561001	1571.400024
1389.091767	1862.0
1389.622478	971.5999756
1390.153133	733.5999756
1390.683733	690.7999878
1391.214277	682.2000122
1391.744766	679.2000122
1392.2752	675.5999756
1392.805578	671.5999756
1393.335901	668.4000244
1393.866168	671.7999878
1394.396381	668.7999878
1394.926537	666.5999756
1395.456639	668.7999878
1395.986685	667.5999756
1396.516675	666.2000122
1397.046611	667.0
1397.576491	665.4000244
1399.165798	668.2000122
1399.695457	663.4000244
1400.22506	667.2000122
1400.754608	664.0
1401.284101	665.7999878
1401.813538	666.5999756
1402.34292	664.7999878
1402.872247	664.4000244
1403.401518	666.5999756
1403.930734	665.4000244
1404.459895	668.7999878
1404.989	668.0
1405.51805	665.5999756
1406.047045	667.5999756
1406.575984	666.7999878
1407.104869	666.7999878
1407.633697	669.2000122
1408.162471	674.4000244
1408.691189	673.7999878
1409.219852	686.7999878
1409.74846	717.5999756
1410.277013	754.7999878
1410.80551	715.5999756
1411.333952	679.5999756
1411.862339	673.0
1412.39067	667.5999756
1412.918946	666.4000244
1413.447167	664.7999878
1413.975333	668.5999756
1414.503444	666.7999878
1415.031499	668.0
1415.559499	674.4000244
1416.087444	666.7999878
1416.615333	663.5999756
1417.143167	667.4000244
1417.670947	663.0
1418.19867	667.7999878
1418.726339	664.5999756
1419.253952	663.4000244
1419.781511	664.0
1420.309014	665.0
1420.836461	663.5999756
1421.363854	665.2000122
1421.891191	662.7999878
1422.418474	664.5999756
1422.945701	664.5999756
1423.472872	664.4000244
1423.999989	664.7999878
1424.52705	667.2000122
1425.054057	666.0
1425.581008	665.0
1426.107904	666.2000122
1426.634745	665.7999878
1427.16153	665.7999878
1427.688261	662.5999756
1428.214936	664.0
1428.741556	665.4000244
1429.268121	663.2000122
1429.794631	666.0
1430.321085	663.7999878
1430.847485	663.5999756
1431.373829	661.7999878
1431.900118	664.7999878
1432.426353	663.5999756
1432.952532	661.7999878
1433.478655	663.7999878
1434.004724	661.7999878
1434.530738	663.4000244
1435.056696	663.4000244
1435.5826	663.4000244
1436.108448	660.7999878
1436.634241	663.4000244
1437.159979	661.0
1437.685662	662.7999878
1438.21129	663.0
1438.736863	663.5999756
1439.262381	662.0
1439.787843	664.0
1440.313251	664.5999756
1440.838603	661.5999756
1441.3639	662.2000122
1441.889143	660.5999756
1442.41433	663.5999756
1442.939462	663.7999878
1443.464539	664.0
1443.989561	663.7999878
1444.514528	662.0
1445.03944	663.2000122
1445.564297	661.7999878
1446.089099	662.2000122
1446.613846	662.4000244
1447.138537	660.5999756
1447.663174	661.0
1448.187756	665.5999756
1448.712282	659.7999878
1449.236754	662.5999756
1449.761171	659.2000122
1450.285532	662.4000244
1450.809839	661.5999756
1451.33409	661.0
1451.858287	664.0
1452.382428	660.4000244
1452.906515	660.5999756
1453.430546	662.4000244
1453.954523	662.2000122
1454.478444	662.0
1455.002311	660.5999756
1455.526123	659.2000122
1456.049879	661.7999878
1456.573581	661.2000122
1457.097227	660.2000122
1457.620819	662.0
1458.144356	662.4000244
1458.667837	661.2000122
1459.191264	660.5999756
1459.714636	661.0
1460.237952	664.5999756
1460.761214	662.4000244
1461.284421	662.7999878
1461.807573	663.7999878
1462.33067	660.4000244
1462.853712	660.5999756
1463.376699	661.7999878
1463.899632	661.2000122
1464.422509	661.2000122
1464.945331	662.0
1465.468099	661.5999756
1465.990811	659.4000244
1466.513469	660.0
1467.036071	660.2000122
1467.558619	662.0
1468.081112	662.0
1468.60355	660.5999756
1469.125933	663.0
1469.648261	659.7999878
1470.170534	664.4000244
1470.692752	661.0
1471.214916	662.2000122
1471.737024	659.4000244
1472.259078	661.7999878
1472.781077	660.7999878
1473.303021	662.0
1473.82491	661.5999756
1474.346744	662.7999878
1474.868523	661.5999756
1475.390248	660.4000244
1475.911917	660.4000244
1476.433532	661.2000122
1476.955092	659.7999878
1477.476597	663.5999756
1477.998047	662.0
1478.519442	661.5999756
1479.040783	660.5999756
1479.562068	659.4000244
1480.083299	659.7999878
1480.604475	660.4000244
1481.125596	661.4000244
1481.646663	661.4000244
1482.167674	660.7999878
1482.688631	660.2000122
1483.209533	659.4000244
1483.73038	659.2000122
1484.251172	660.7999878
1484.771909	661.5999756
1485.292592	661.5999756
1485.81322	660.7999878
1486.333793	659.0
1486.854311	662.4000244
1487.374775	661.0
1487.895183	661.7999878
1488.415537	660.7999878
1488.935836	659.7999878
1489.456081	661.0
1489.97627	661.2000122
1490.496405	660.7999878
1491.016485	660.2000122
1491.536511	660.4000244
1492.056481	662.4000244
1492.576397	661.2000122
1493.096258	660.0
1493.616064	662.5999756
1494.135816	661.7999878
1494.655513	659.5999756
1495.175155	661.7999878
1495.694742	659.4000244
1496.214274	660.4000244
1496.733752	660.0
1497.253175	663.0
1497.772544	660.4000244
1498.291858	659.2000122
1498.811116	662.0
1499.330321	660.4000244
1499.84947	666.4000244
1500.368565	660.7999878
1500.887605	662.4000244
1501.406591	661.2000122
1501.925521	659.5999756
1502.444397	663.0
1502.963219	658.2000122
1503.481985	662.5999756
1504.000697	659.7999878
1504.519355	659.2000122
1505.037957	660.4000244
1505.556505	660.7999878
1506.074999	663.0
1506.593437	661.7999878
1507.111821	660.7999878
1507.63015	661.4000244
1508.148425	660.5999756
1508.666645	661.2000122
1509.18481	660.7999878
1509.702921	660.5999756
1510.220977	661.0
1510.738979	668.0
1511.256925	663.0
1511.774817	663.4000244
1512.292655	660.5999756
1512.810438	662.7999878
1513.328166	659.5999756
1513.84584	659.7999878
1514.363459	660.2000122
1514.881023	660.7999878
1515.398533	661.5999756
1515.915988	661.0
1516.433389	662.2000122
1516.950734	659.0
1517.468026	656.5999756
1517.985263	660.5999756
1518.502445	660.4000244
1519.019572	662.5999756
1519.536645	659.5999756
1520.053664	661.7999878
1520.570628	662.5999756
1521.087537	661.5999756
1521.604392	660.2000122
1522.121192	661.5999756
1522.637937	659.0
1523.154628	660.7999878
1523.671265	660.2000122
1524.187847	661.0
1524.704374	660.4000244
1525.220847	660.2000122
1525.737265	658.0
1526.253629	662.0
1526.769938	658.0
1527.286192	663.0
1527.802392	660.0
1528.318538	658.7999878
1528.834629	660.4000244
1529.350666	660.5999756
1529.866648	662.4000244
1530.382575	661.2000122
1530.898448	658.2000122
1531.414266	660.4000244
1531.93003	662.2000122
1532.44574	659.2000122
1532.961395	662.5999756
1533.476995	660.7999878
1533.992541	660.7999878
1534.508033	659.5999756
1535.02347	658.5999756
1535.538852	659.5999756
1536.05418	662.2000122
1536.569454	660.4000244
1537.084673	659.5999756
1537.599837	658.2000122
1538.114947	661.4000244
1538.630003	660.4000244
1539.145004	659.7999878
1539.659951	660.0
1540.174843	658.5999756
1540.689681	660.2000122
1541.204465	659.5999756
1541.719194	661.0
1542.233868	660.7999878
1542.748488	660.7999878
1543.263054	658.7999878
1543.777565	660.0
1544.292022	658.4000244
1544.806424	661.2000122
1545.320772	657.2000122
1545.835066	661.7999878
1546.349305	660.4000244
1546.863489	660.0
1547.37762	661.4000244
1547.891696	658.7999878
1548.405717	661.0
1548.919684	658.7999878
1549.433597	660.0
1549.947455	660.2000122
1550.461259	660.4000244
1550.975009	659.5999756
1551.488704	661.4000244
1552.002345	660.7999878
1552.515931	661.4000244
1553.029463	659.0
1553.542941	661.0
1554.056364	658.5999756
1554.569733	659.7999878
1555.083048	660.5999756
1555.596308	661.5999756
1556.109514	660.5999756
1556.622665	662.7999878
1557.135762	661.0
1557.648805	660.2000122
1558.161794	659.2000122
1558.674728	660.4000244
1559.187608	660.5999756
1559.700433	661.0
1560.213205	657.2000122
1560.725921	659.7999878
1561.238584	659.5999756
1561.751192	661.0
1562.263746	662.7999878
1562.776246	659.4000244
1563.288691	659.2000122
1563.801082	658.7999878
1564.313419	660.4000244
1564.825701	660.0
1565.337929	661.0
1565.850103	661.0
1566.362223	660.5999756
1566.874288	659.0
1567.386299	660.7999878
1567.898256	661.0
1568.410158	660.4000244
1568.922007	659.0
1569.4338	660.7999878
1569.94554	661.7999878
1570.457226	662.7999878
1570.968857	659.4000244
1571.480434	660.0
1571.991956	660.2000122
1572.503425	659.5999756
1573.014839	658.5999756
1573.526199	661.2000122
1574.037505	659.7999878
1574.548756	661.2000122
1575.059953	660.4000244
1575.571096	660.5999756
1576.082185	660.2000122
1576.59322	657.7999878
1577.1042	659.5999756
1577.615126	662.2000122
1578.125998	661.7999878
1578.636816	662.7999878
1579.14758	661.4000244
1579.658289	660.2000122
1580.168944	659.0
1580.679545	661.0
1581.190092	659.5999756
1581.700585	661.0
1582.211023	660.0
1582.721407	658.7999878
1583.231737	659.0
1583.742013	659.2000122
1584.252235	659.0
1584.762403	660.2000122
1585.272516	658.7999878
1585.782575	658.2000122
1586.292581	659.0
1586.802532	660.5999756
1587.312428	659.2000122
1587.822271	659.4000244
1588.33206	660.4000244
1588.841794	658.7999878
1589.351474	659.5999756
1589.8611	660.2000122
1590.370672	661.2000122
1590.88019	658.7999878
1591.389654	657.5999756
1591.899064	659.4000244
1592.408419	656.2000122
