1042.452273	812.0
1043.018714	810.5999756
1043.585098	811.2000122
1044.151424	810.4000244
1044.717692	811.4000244
1045.283903	810.5999756
1045.850056	806.5999756
1046.416151	810.4000244
1046.982188	810.0
1047.548167	809.7999878
1048.114089	803.5999756
1048.679953	802.4000244
1049.24576	799.2000122
1049.811509	799.5999756
1050.3772	809.5999756
1050.942833	808.0
1051.508408	798.2000122
1052.073926	801.2000122
1052.639387	801.2000122
1053.204789	801.4000244
1053.770134	800.5999756
1054.335421	799.5999756
1054.900651	800.4000244
1055.465823	794.0
1056.030937	799.0
1056.595993	804.2000122
1057.160992	801.0
1057.725934	796.5999756
1058.290817	793.5999756
1058.855643	797.4000244
1059.420411	794.7999878
1059.985122	793.0
1060.549775	792.0
1061.114371	798.0
1061.678908	798.2000122
1062.243389	797.0
1062.807811	799.0
1063.372176	799.2000122
1063.936483	791.7999878
1064.500733	787.2000122
1065.064925	792.7999878
1065.62906	790.4000244
1066.193137	790.5999756
1066.757156	791.2000122
1067.321118	793.4000244
1067.885022	784.2000122
1068.448869	790.7999878
1069.012658	792.4000244
1069.57639	790.7999878
1070.140063	801.4000244
1070.70368	792.5999756
1071.267239	787.5999756
1071.83074	790.5999756
1072.394184	793.5999756
1072.95757	779.7999878
1073.520899	790.0
1074.08417	788.5999756
1074.647383	790.0
1075.21054	786.2000122
1075.773638	789.2000122
1076.336679	787.0
1076.899663	788.0
1077.462589	785.7999878
1078.025457	790.2000122
1078.588268	791.2000122
1079.151022	781.0
1079.713718	780.2000122
1080.276356	778.5999756
1080.838937	785.0
1081.401461	784.7999878
1081.963927	788.2000122
1082.526336	789.5999756
1083.088687	786.0
1083.650981	786.2000122
1084.213217	788.0
1084.775396	788.2000122
1085.337517	783.4000244
1085.899581	781.7999878
1086.461587	785.5999756
1087.023536	777.7999878
1087.585428	777.5999756
1088.147262	783.2000122
1088.709039	780.2000122
1089.270758	783.4000244
1089.83242	780.5999756
1090.394024	777.5999756
1090.955571	780.5999756
1091.517061	786.0
1092.078493	783.5999756
1092.639868	782.4000244
1093.201185	786.2000122
1093.762445	776.7999878
1094.323648	781.0
1094.884793	778.7999878
1095.445881	775.7999878
1096.006911	777.5999756
1096.567884	779.5999756
1097.1288	776.5999756
1097.689659	782.2000122
1098.25046	780.0
1098.811203	776.5999756
1099.37189	779.0
1099.932518	782.4000244
1100.49309	776.5999756
1101.053604	777.4000244
1101.614061	776.5999756
1102.174461	782.2000122
1102.734803	774.5999756
1103.295088	777.5999756
1103.855316	775.5999756
1104.415486	773.0
1104.975599	778.4000244
1105.535655	778.2000122
1106.095653	774.5999756
1106.655594	779.0
1107.215478	772.0
1107.775305	782.7999878
1108.335074	768.0
1108.894786	776.2000122
1109.45444	778.2000122
1110.014038	773.2000122
1110.573578	774.7999878
1111.133061	775.0
1111.692486	778.7999878
1112.251854	768.2000122
1112.811165	773.5999756
1113.370419	775.7999878
1113.929616	775.4000244
1114.488755	769.4000244
1115.047837	774.4000244
1115.606862	771.7999878
1116.16583	783.5999756
1116.72474	769.2000122
1117.283593	773.0
1117.842389	775.5999756
1118.401128	777.0
1118.959809	779.0
1119.518433	777.7999878
1120.077	770.7999878
1120.63551	776.0
1121.193963	771.7999878
1121.752358	773.5999756
1122.310697	770.4000244
1122.868978	773.2000122
1123.427202	772.0
1123.985368	770.2000122
1124.543478	766.0
1125.10153	774.4000244
1125.659526	779.2000122
1126.217464	770.0
1126.775345	763.7999878
1127.333168	766.2000122
1127.890935	771.0
1128.448644	770.2000122
1129.006297	769.5999756
1129.563892	772.7999878
1130.12143	774.0
1130.678911	766.7999878
1131.236335	772.2000122
1131.793701	769.7999878
1132.351011	771.7999878
1132.908263	775.7999878
1133.465458	765.2000122
1134.022597	770.0
1134.579678	771.2000122
1135.136702	767.7999878
1135.693669	774.7999878
1136.250578	771.4000244
1136.807431	765.0
1137.364227	770.2000122
1137.920965	769.7999878
1138.477647	776.5999756
1139.034271	774.7999878
1139.590839	775.4000244
1140.147349	770.7999878
1140.703802	767.7999878
1141.260198	773.0
1141.816537	763.7999878
1142.37282	773.2000122
1142.929045	771.2000122
1143.485213	765.4000244
1144.041323	775.4000244
1144.597377	770.2000122
1145.153374	768.0
1145.709314	774.5999756
1146.265197	771.0
1146.821023	777.2000122
1147.376792	771.5999756
1147.932503	774.2000122
1148.488158	776.7999878
1149.043756	762.2000122
1149.599297	769.2000122
1150.154781	769.7999878
1150.710207	764.7999878
1151.265577	773.4000244
1151.82089	772.4000244
1152.376146	769.4000244
1152.931345	778.7999878
1153.486487	767.7999878
1154.041572	776.2000122
1154.5966	768.7999878
1155.151571	769.2000122
1155.706485	771.7999878
1156.261342	776.0
1156.816142	777.7999878
1157.370885	769.2000122
1157.925572	766.0
1158.480201	771.7999878
1159.034774	770.0
1159.589289	775.7999878
1160.143748	772.0
1160.698149	768.5999756
1161.252494	766.5999756
1161.806782	772.4000244
1162.361013	769.0
1162.915187	767.4000244
1163.469304	771.5999756
1164.023364	770.2000122
1164.577368	762.5999756
1165.131314	769.0
1165.685204	775.4000244
1166.239036	770.4000244
1166.792812	769.7999878
1167.346531	763.0
1167.900193	764.5999756
1168.453798	764.7999878
1169.007347	767.7999878
1169.560838	771.7999878
1170.114273	769.2000122
1170.66765	770.4000244
1171.220971	766.4000244
1171.774235	762.0
1172.327443	766.2000122
1172.880593	764.5999756
1173.433687	770.5999756
1173.986723	764.5999756
1174.539703	768.0
1175.092626	760.2000122
1175.645493	766.5999756
1176.198302	764.7999878
1176.751055	760.5999756
1177.303751	761.5999756
1177.85639	768.4000244
1178.408972	761.2000122
1178.961498	760.5999756
1179.513966	765.0
1180.066378	765.4000244
1180.618733	758.5999756
1181.171032	761.7999878
1181.723273	761.0
1182.275458	760.0
1182.827586	763.5999756
1183.379657	762.4000244
1183.931672	764.7999878
1184.48363	763.4000244
1185.035531	761.4000244
1185.587375	760.2000122
1186.139162	762.0
1186.690893	755.2000122
1187.242567	763.7999878
1187.794184	760.2000122
1188.345745	765.5999756
1188.897249	763.5999756
1189.448696	756.7999878
1190.000086	765.4000244
1190.55142	760.0
1191.102697	765.4000244
1191.653918	764.7999878
1192.205081	762.5999756
1192.756188	760.7999878
1193.307238	777.4000244
1193.858232	758.5999756
1194.409169	760.7999878
1194.960049	763.0
1195.510872	764.5999756
1196.061639	764.5999756
1196.612349	756.4000244
1197.163003	757.5999756
1197.713599	753.4000244
1198.264139	764.0
1198.814623	758.5999756
1199.36505	762.5999756
1199.91542	753.2000122
1200.465734	758.2000122
1201.01599	762.4000244
1201.566191	755.7999878
1202.116334	749.4000244
1202.666421	762.7999878
1203.216452	755.2000122
1203.766425	758.4000244
1204.316343	762.0
1204.866203	761.7999878
1205.416007	764.5999756
1205.965754	761.2000122
1206.515445	758.0
1207.065079	762.2000122
1207.614657	760.7999878
1208.164177	758.5999756
1208.713642	760.0
1209.26305	756.2000122
1209.812401	757.4000244
1210.361695	761.2000122
1210.910933	757.2000122
1211.460115	758.0
1212.00924	760.7999878
1212.558308	763.7999878
1213.10732	761.5999756
1213.656275	764.2000122
1214.205174	767.4000244
1214.754016	760.2000122
1215.302801	763.5999756
1215.85153	756.7999878
1216.400203	761.7999878
1216.948819	757.2000122
1217.497378	758.0
1218.045881	758.5999756
1218.594327	752.0
1219.142717	761.0
1219.691051	762.7999878
1220.239327	756.5999756
1220.787548	762.5999756
1221.335712	759.5999756
1221.883819	761.5999756
1222.43187	758.0
1222.979864	758.5999756
1223.527802	758.5999756
1224.075683	755.4000244
1224.623508	758.2000122
1225.171277	764.4000244
1225.718989	758.7999878
1226.266644	756.7999878
1226.814243	754.0
1227.361786	761.7999878
1227.909272	759.7999878
1228.456702	756.0
1229.004075	754.4000244
1229.551392	755.0
1230.098652	750.7999878
1230.645856	755.5999756
1231.193003	759.5999756
1231.740094	758.4000244
1232.287129	753.2000122
1232.834107	757.0
1233.381029	754.4000244
1233.927894	763.2000122
1234.474703	753.4000244
1235.021455	757.2000122
1235.568151	755.2000122
1236.114791	754.4000244
1236.661374	759.5999756
1237.207901	752.7999878
1237.754372	758.7999878
1238.300786	752.2000122
1238.847144	755.4000244
1239.393445	753.2000122
1239.93969	754.4000244
1240.485879	752.0
1241.032011	754.0
1241.578087	751.4000244
1242.124106	756.0
1242.67007	752.7999878
1243.215976	750.7999878
1243.761827	753.0
1244.307621	754.0
1244.853359	752.5999756
1245.39904	752.0
1245.944665	752.4000244
1246.490234	756.7999878
1247.035746	750.0
1247.581203	753.0
1248.126602	749.2000122
1248.671946	753.0
1249.217233	751.2000122
1249.762464	751.0
1250.307638	753.7999878
1250.852757	751.4000244
1251.397819	754.0
1251.942824	751.4000244
1252.487774	753.4000244
1253.032667	753.0
1253.577503	756.0
1254.122284	751.5999756
1254.667008	753.0
1255.211676	747.5999756
1255.756288	752.5999756
1256.300843	747.5999756
1256.845342	746.5999756
1257.389785	744.2000122
1257.934172	748.0
1258.478502	752.7999878
1259.022776	748.4000244
1259.566994	749.5999756
1260.111156	755.5999756
1260.655261	749.0
1261.199311	748.4000244
1261.743304	748.4000244
1262.28724	755.0
1262.831121	746.7999878
1263.374945	748.2000122
1263.918713	748.5999756
1264.462425	754.5999756
1265.006081	760.0
1265.54968	775.5999756
1266.093223	765.2000122
1266.636711	754.5999756
1267.180141	751.5999756
1267.723516	745.7999878
1268.266835	746.7999878
1268.810097	750.2000122
1269.353303	742.0
1269.896453	737.7999878
1270.439547	748.5999756
1270.982584	743.7999878
1271.525566	748.2000122
1272.068491	743.4000244
1272.61136	746.5999756
1273.154173	741.4000244
1273.69693	750.2000122
1274.239631	745.5999756
1274.782275	745.4000244
1275.324864	746.0
1275.867396	747.4000244
1276.409872	746.7999878
1276.952292	745.2000122
1277.494656	743.7999878
1278.036964	743.4000244
1278.579215	742.4000244
1279.121411	750.5999756
1279.66355	745.0
1280.205634	746.4000244
1280.747661	742.0
1281.289632	748.0
1281.831547	746.7999878
1282.373406	747.7999878
1282.915209	747.2000122
1283.456955	745.7999878
1283.998646	752.4000244
1284.540281	764.7999878
1285.081859	798.0
1285.623381	987.7999878
1286.164848	1080.0
1286.706258	825.2000122
1287.247612	763.4000244
1287.788911	756.2000122
1288.330153	751.2000122
1288.871339	750.0
1289.412469	747.0
1289.953543	743.0
1290.494561	750.4000244
1291.035523	745.0
1291.576428	746.4000244
1292.117278	742.0
1292.658072	740.5999756
1293.19881	748.5999756
1293.739492	743.2000122
1294.280118	745.4000244
1294.820687	744.0
1295.361201	747.7999878
1295.901659	743.2000122
1296.442061	745.7999878
1296.982406	744.2000122
1297.522696	748.4000244
1298.06293	742.2000122
1298.603108	741.7999878
1299.143229	736.7999878
1299.683295	743.0
1300.223305	740.7999878
1300.763259	744.5999756
1301.303157	738.7999878
1301.842999	748.5999756
1302.382785	742.0
1302.922515	740.4000244
1303.462189	739.0
1304.001807	743.5999756
1304.541369	740.5999756
1305.080875	736.0
1305.620326	747.5999756
1306.15972	744.4000244
1306.699058	744.7999878
1307.238341	739.7999878
1307.777567	741.0
1308.316738	754.0
1308.855853	739.2000122
1309.394912	743.4000244
1309.933915	741.7999878
1310.472862	735.5999756
1311.011753	738.5999756
1311.550588	742.2000122
1312.089367	741.0
1312.62809	744.5999756
1313.166758	743.7999878
1313.70537	743.4000244
1314.243925	740.0
1314.782425	739.5999756
1315.320869	746.2000122
1315.859257	737.7999878
1316.397589	740.0
1316.935866	733.7999878
1317.474086	745.5999756
1318.012251	738.7999878
1318.55036	739.2000122
1319.088413	736.2000122
1319.62641	736.0
1320.164351	736.2000122
1320.702236	736.0
1321.240066	744.2000122
1321.777839	746.4000244
1322.315557	740.5999756
1322.853219	738.7999878
1323.390826	740.7999878
1323.928376	739.2000122
1324.465871	740.7999878
1325.003309	744.5999756
1325.540692	740.7999878
1326.07802	742.5999756
1326.615291	741.7999878
1327.152506	743.4000244
1327.689666	740.4000244
1328.22677	739.7999878
1328.763818	735.7999878
1329.300811	736.4000244
1329.837747	740.7999878
1330.374628	736.4000244
1330.911453	741.0
1331.448222	738.4000244
1331.984936	741.7999878
1332.521594	747.5999756
1333.058196	735.5999756
1333.594742	743.0
1334.131232	738.2000122
1334.667667	742.7999878
1335.204046	738.5999756
1335.740369	742.5999756
1336.276637	744.5999756
1336.812848	738.5999756
1337.349004	745.7999878
1337.885105	750.2000122
1338.421149	741.2000122
1338.957138	746.5999756
1339.493071	739.5999756
1340.028949	738.5999756
1340.56477	745.2000122
1341.100536	745.5999756
1341.636246	738.7999878
1342.171901	743.2000122
1342.7075	741.4000244
1343.243043	744.2000122
1343.77853	738.5999756
1344.313962	741.0
1344.849338	740.2000122
1345.384659	737.7999878
1345.919923	740.2000122
1346.455133	740.7999878
1346.990286	735.5999756
1347.525384	740.4000244
1348.060426	743.7999878
1348.595412	743.5999756
1349.130343	740.7999878
1349.665218	742.5999756
1350.200037	736.4000244
1350.734801	744.0
1351.269509	744.4000244
1351.804162	739.7999878
1352.338758	739.5999756
1352.8733	736.2000122
1353.407785	740.5999756
1353.942215	747.5999756
1354.476589	744.4000244
1355.010908	738.0
1355.545171	743.7999878
1356.079379	739.5999756
1356.61353	740.5999756
1357.147627	740.5999756
1357.681667	738.2000122
1358.215652	736.7999878
1358.749582	741.2000122
1359.283456	745.0
1359.817274	739.5999756
1360.351037	737.2000122
1360.884744	738.2000122
1361.418395	741.5999756
1361.951991	747.2000122
1362.485531	739.0
1363.019016	740.4000244
1363.552445	744.4000244
1364.085819	742.7999878
1364.619137	738.4000244
1365.1524	735.7999878
1365.685607	742.4000244
1366.218758	745.4000244
1366.751854	747.5999756
1367.284894	746.2000122
1367.817879	738.4000244
1368.350808	738.7999878
1368.883682	739.2000122
1369.4165	740.2000122
1369.949263	741.2000122
1370.48197	746.7999878
1371.014622	747.5999756
1371.547218	739.5999756
1372.079758	742.4000244
1372.612244	741.4000244
1373.144673	743.5999756
1373.677047	742.2000122
1374.209366	743.2000122
1374.741629	742.0
1375.273836	737.4000244
1375.805989	744.7999878
1376.338085	737.0
1376.870126	741.0
1377.402112	742.5999756
1377.934042	741.7999878
1378.465917	738.7999878
1378.997736	745.4000244
1379.5295	744.0
1380.061208	736.5999756
1380.592861	735.5999756
1381.124459	742.4000244
1381.656	738.5999756
1382.187487	739.5999756
1382.718918	738.7999878
1383.250294	738.4000244
1383.781614	739.5999756
1384.312879	743.5999756
1384.844088	740.2000122
1385.375242	743.7999878
1385.90634	744.7999878
1386.437383	744.5999756
1386.968371	749.2000122
1387.499303	750.5999756
1388.03018	772.5999756
1388.561001	962.4000244
1389.091767	1353.199951
1389.622478	965.2000122
1390.153133	775.4000244
1390.683733	757.5999756
1391.214277	744.2000122
1391.744766	744.7999878
1392.2752	745.7999878
1392.805578	734.7999878
1393.335901	747.4000244
1393.866168	744.0
1394.396381	737.4000244
1394.926537	742.0
1395.456639	742.4000244
1395.986685	733.5999756
1396.516675	741.7999878
1397.046611	739.2000122
1397.576491	744.5999756
1398.106315	745.7999878
1398.636084	742.5999756
1399.165798	735.5999756
1399.695457	742.7999878
1400.22506	733.4000244
1400.754608	741.7999878
1401.284101	739.5999756
1401.813538	741.7999878
1402.34292	739.0
1402.872247	739.2000122
1403.401518	741.0
1403.930734	739.2000122
1404.459895	740.2000122
1404.989	738.4000244
1405.51805	741.4000244
1406.047045	743.7999878
1406.575984	744.5999756
1407.104869	744.0
1407.633697	741.2000122
1408.162471	742.7999878
1408.691189	739.5999756
1409.219852	748.0
1409.74846	765.4000244
1410.277013	804.7999878
1410.80551	781.5999756
1411.333952	748.0
1411.862339	746.4000244
1412.39067	746.0
1412.918946	741.0
1413.447167	743.5999756
1413.975333	740.2000122
1414.503444	747.0
1415.031499	741.0
1415.559499	746.4000244
1416.087444	736.2000122
1416.615333	739.5999756
1417.143167	740.0
1417.670947	739.7999878
1418.19867	738.5999756
1418.726339	737.2000122
1419.253952	744.7999878
1419.781511	740.7999878
1420.309014	735.7999878
1420.836461	736.7999878
1421.363854	738.7999878
1421.891191	735.7999878
1422.418474	736.7999878
1422.945701	738.5999756
1423.472872	739.5999756
1423.999989	736.4000244
1424.52705	742.4000244
1425.054057	743.4000244
1425.581008	741.7999878
1426.107904	745.0
1426.634745	743.7999878
1427.16153	735.5999756
1427.688261	738.4000244
1428.214936	737.4000244
1428.741556	737.5999756
1429.268121	738.0
1429.794631	741.7999878
1430.321085	740.0
1430.847485	741.2000122
1431.373829	740.4000244
1431.900118	740.4000244
1432.426353	738.4000244
1432.952532	740.4000244
1433.478655	736.4000244
1434.004724	739.4000244
1434.530738	738.4000244
1435.056696	740.0
1435.5826	739.5999756
1436.108448	736.2000122
1436.634241	741.2000122
1437.159979	736.5999756
1437.685662	734.7999878
1438.21129	743.2000122
1438.736863	742.7999878
1439.262381	736.7999878
1439.787843	739.2000122
1440.313251	739.0
1440.838603	736.0
1441.3639	740.0
1441.889143	740.7999878
1442.41433	740.2000122
1442.939462	735.7999878
1443.464539	732.4000244
1443.989561	736.0
1444.514528	740.2000122
1445.03944	734.2000122
1445.564297	736.2000122
1446.089099	742.7999878
1446.613846	734.5999756
1447.138537	737.7999878
1447.663174	740.2000122
1448.187756	737.5999756
1448.712282	740.4000244
1449.236754	735.2000122
1449.761171	732.7999878
1450.285532	738.2000122
1450.809839	733.5999756
1451.33409	741.4000244
1451.858287	734.5999756
1452.382428	738.0
1452.906515	736.0
1453.430546	733.4000244
1453.954523	739.0
1454.478444	737.5999756
1455.002311	736.0
1455.526123	732.4000244
1456.049879	742.2000122
1456.573581	739.0
1457.097227	734.2000122
1457.620819	739.2000122
1458.144356	737.0
1458.667837	734.0
1459.191264	733.0
1459.714636	739.0
1460.237952	732.5999756
1460.761214	736.7999878
1461.284421	737.4000244
1461.807573	734.5999756
1462.33067	737.0
1462.853712	736.5999756
1463.376699	733.4000244
1463.899632	739.7999878
1464.422509	738.4000244
1464.945331	736.4000244
1465.468099	738.4000244
1465.990811	735.0
1466.513469	741.4000244
1467.036071	735.7999878
1467.558619	738.4000244
1468.081112	737.2000122
1468.60355	740.2000122
1469.125933	736.5999756
1469.648261	727.4000244
1470.170534	736.4000244
1470.692752	734.4000244
1471.214916	738.7999878
1471.737024	736.4000244
1472.259078	731.0
1472.781077	741.0
1473.303021	731.0
1473.82491	734.5999756
1474.346744	731.5999756
1474.868523	735.2000122
1475.390248	734.4000244
1475.911917	737.0
1476.433532	733.4000244
1476.955092	737.0
1477.476597	734.2000122
1477.998047	730.2000122
1478.519442	731.5999756
1479.040783	735.0
1479.562068	733.2000122
1480.083299	730.0
1480.604475	736.0
1481.125596	733.7999878
1481.646663	736.7999878
1482.167674	734.7999878
1482.688631	733.4000244
1483.209533	733.2000122
1483.73038	730.4000244
1484.251172	731.4000244
1484.771909	732.7999878
1485.292592	736.2000122
1485.81322	734.7999878
1486.333793	737.5999756
1486.854311	735.5999756
1487.374775	733.7999878
1487.895183	732.0
1488.415537	736.2000122
1488.935836	733.7999878
1489.456081	729.2000122
1489.97627	733.5999756
1490.496405	735.2000122
1491.016485	734.2000122
1491.536511	732.4000244
1492.056481	732.4000244
1492.576397	734.7999878
1493.096258	735.4000244
1493.616064	732.7999878
1494.135816	733.0
1494.655513	729.2000122
1495.175155	729.7999878
1495.694742	732.4000244
1496.214274	734.7999878
1496.733752	730.5999756
1497.253175	731.7999878
1497.772544	734.7999878
1498.291858	733.2000122
1498.811116	735.2000122
1499.330321	728.4000244
1499.84947	743.0
1500.368565	732.0
1500.887605	733.0
1501.406591	733.7999878
1501.925521	739.4000244
1502.444397	732.7999878
1502.963219	728.5999756
1503.481985	730.7999878
1504.000697	732.0
1504.519355	732.2000122
1505.037957	733.5999756
1505.556505	734.7999878
1506.074999	732.0
1506.593437	733.4000244
1507.111821	730.0
1507.63015	732.5999756
1508.148425	729.7999878
1508.666645	731.7999878
1509.18481	731.0
1509.702921	736.2000122
1510.220977	727.5999756
1510.738979	740.5999756
1511.256925	729.5999756
1511.774817	732.4000244
1512.292655	732.5999756
1512.810438	730.0
1513.328166	729.5999756
1513.84584	733.5999756
1514.363459	732.0
1514.881023	734.2000122
1515.398533	731.4000244
1515.915988	731.7999878
1516.433389	728.5999756
1516.950734	730.4000244
1517.468026	729.5999756
1517.985263	729.0
1518.502445	726.7999878
1519.019572	726.7999878
1519.536645	730.5999756
1520.053664	728.7999878
1520.570628	733.2000122
1521.087537	730.4000244
1521.604392	727.4000244
1522.121192	729.0
1522.637937	729.7999878
1523.154628	726.7999878
1523.671265	730.7999878
1524.187847	730.0
1524.704374	731.4000244
1525.220847	732.5999756
1525.737265	734.2000122
1526.253629	728.5999756
1526.769938	729.7999878
1527.286192	732.2000122
1527.802392	729.5999756
1528.318538	733.5999756
1529.350666	742.4000244
1529.866648	730.4000244
1530.382575	731.5999756
1530.898448	731.0
1531.414266	726.5999756
1531.93003	730.7999878
1532.44574	730.5999756
1532.961395	728.7999878
1533.476995	730.7999878
1533.992541	732.2000122
1534.508033	733.2000122
1535.02347	733.7999878
1535.538852	730.5999756
1536.05418	729.0
1536.569454	730.4000244
1537.084673	731.0
1537.599837	727.2000122
1538.114947	727.7999878
1538.630003	729.4000244
1539.145004	732.0
1539.659951	725.5999756
1540.174843	733.0
1540.689681	731.0
1541.204465	728.0
1541.719194	730.5999756
1542.233868	735.4000244
1542.748488	734.2000122
1543.263054	730.5999756
1543.777565	733.0
1544.292022	729.5999756
1544.806424	723.5999756
1545.320772	728.5999756
1545.835066	728.4000244
1546.349305	732.2000122
1546.863489	727.5999756
1547.37762	728.7999878
1547.891696	726.0
1548.405717	727.5999756
1548.919684	724.4000244
1549.433597	727.4000244
1549.947455	733.4000244
1550.461259	729.7999878
1550.975009	729.0
1551.488704	731.7999878
1552.002345	728.0
1552.515931	732.7999878
1553.029463	724.0
1553.542941	732.2000122
1554.056364	730.4000244
1554.569733	731.4000244
1555.083048	731.0
1555.596308	730.0
1556.109514	726.0
1556.622665	726.2000122
1557.135762	728.5999756
1557.648805	727.0
1558.161794	733.2000122
1558.674728	727.2000122
1559.187608	724.2000122
1559.700433	730.2000122
1560.213205	727.7999878
1560.725921	730.2000122
1561.238584	730.2000122
1561.751192	725.4000244
1562.263746	723.7999878
1562.776246	728.7999878
1563.288691	727.0
1563.801082	727.2000122
1564.313419	727.5999756
1564.825701	727.2000122
1565.337929	723.7999878
1565.850103	729.7999878
1566.362223	730.5999756
1566.874288	730.0
1567.386299	729.4000244
1567.898256	721.4000244
1568.410158	727.2000122
1568.922007	727.4000244
1569.4338	728.5999756
1569.94554	730.7999878
1570.457226	729.2000122
1570.968857	729.4000244
1571.480434	725.0
1571.991956	725.2000122
1572.503425	730.5999756
1573.014839	730.4000244
1573.526199	727.7999878
1574.037505	729.0
1574.548756	725.5999756
1575.059953	725.2000122
1575.571096	731.0
1576.082185	721.4000244
1576.59322	725.2000122
1577.1042	726.0
1577.615126	726.5999756
1578.125998	724.7999878
1578.636816	729.0
1579.14758	725.7999878
1579.658289	726.5999756
1580.168944	725.5999756
1580.679545	724.7999878
1581.190092	731.2000122
1581.700585	724.7999878
1582.211023	725.5999756
1582.721407	723.4000244
1583.231737	728.7999878
1583.742013	725.7999878
1584.252235	726.2000122
1584.762403	727.7999878
1585.272516	729.5999756
1585.782575	731.7999878
1586.292581	730.4000244
1586.802532	725.5999756
1587.312428	728.0
1587.822271	725.5999756
1588.33206	723.4000244
1588.841794	730.5999756
1589.351474	726.5999756
1589.8611	719.4000244
1590.370672	724.4000244
1590.88019	731.5999756
1591.389654	722.7999878
1591.899064	730.4000244
1592.408419	730.0
