1042.452273	749.4000244
1043.018714	747.0
1043.585098	742.5999756
1044.151424	745.7999878
1044.717692	743.7999878
1045.283903	739.0
1045.850056	745.4000244
1046.416151	743.2000122
1046.982188	744.5999756
1047.548167	738.0
1048.114089	738.5999756
1048.679953	740.0
1049.24576	742.7999878
1049.811509	738.7999878
1050.3772	741.4000244
1050.942833	745.7999878
1051.508408	735.2000122
1052.073926	736.2000122
1052.639387	736.7999878
1053.204789	738.5999756
1053.770134	735.4000244
1054.335421	734.5999756
1054.900651	741.0
1055.465823	733.4000244
1056.030937	735.0
1056.595993	738.5999756
1057.160992	733.0
1057.725934	737.0
1058.290817	743.0
1058.855643	734.2000122
1059.420411	734.5999756
1059.985122	738.4000244
1060.549775	734.2000122
1061.114371	737.2000122
1061.678908	732.7999878
1062.243389	733.5999756
1062.807811	734.0
1063.372176	734.0
1063.936483	731.4000244
1064.500733	735.2000122
1065.064925	735.5999756
1065.62906	731.4000244
1066.193137	736.7999878
1066.757156	733.7999878
1067.321118	730.4000244
1067.885022	731.4000244
1068.448869	731.2000122
1069.012658	731.2000122
1069.57639	727.2000122
1070.140063	739.2000122
1070.70368	732.2000122
1071.267239	734.7999878
1071.83074	734.5999756
1072.394184	729.0
1072.95757	731.2000122
1073.520899	728.2000122
1074.08417	731.4000244
1074.647383	731.2000122
1075.21054	735.2000122
1075.773638	728.2000122
1076.336679	727.0
1076.899663	728.0
1077.462589	734.7999878
1078.025457	732.7999878
1078.588268	735.0
1079.151022	729.2000122
1079.713718	727.2000122
1080.276356	729.7999878
1080.838937	731.2000122
1081.401461	731.4000244
1081.963927	726.4000244
1082.526336	724.5999756
1083.088687	736.2000122
1083.650981	728.7999878
1084.213217	731.0
1084.775396	729.5999756
1085.337517	731.0
1085.899581	731.0
1086.461587	730.0
1087.023536	730.0
1087.585428	729.5999756
1088.147262	730.2000122
1088.709039	732.0
1089.270758	727.7999878
1089.83242	727.5999756
1090.394024	727.0
1090.955571	731.4000244
1091.517061	729.2000122
1092.078493	731.4000244
1092.639868	729.4000244
1093.201185	729.0
1093.762445	733.0
1094.323648	725.2000122
1094.884793	730.5999756
1095.445881	729.5999756
1096.006911	730.2000122
1096.567884	728.0
1097.1288	735.4000244
1097.689659	730.7999878
1098.25046	723.7999878
1098.811203	731.5999756
1099.37189	728.5999756
1099.932518	727.2000122
1100.49309	731.2000122
1101.053604	726.7999878
1101.614061	727.0
1102.174461	729.4000244
1102.734803	725.5999756
1103.295088	725.7999878
1103.855316	730.2000122
1104.415486	730.0
1104.975599	727.0
1105.535655	728.5999756
1106.095653	728.7999878
1106.655594	727.5999756
1107.215478	728.2000122
1107.775305	727.2000122
1108.335074	728.2000122
1108.894786	728.5999756
1109.45444	730.7999878
1110.014038	733.0
1110.573578	730.5999756
1111.133061	726.4000244
1111.692486	727.2000122
1112.251854	723.7999878
1112.811165	724.7999878
1113.370419	725.4000244
1113.929616	724.4000244
1114.488755	727.7999878
1115.047837	723.5999756
1115.606862	725.5999756
1116.16583	728.0
1116.72474	726.5999756
1117.283593	724.2000122
1117.842389	728.5999756
1118.401128	723.7999878
1118.959809	731.4000244
1119.518433	726.4000244
1120.077	726.4000244
1120.63551	721.2000122
1121.193963	727.4000244
1121.752358	719.5999756
1122.310697	730.5999756
1122.868978	724.5999756
1123.427202	726.7999878
1123.985368	728.0
1124.543478	724.7999878
1125.10153	727.4000244
1125.659526	728.2000122
1126.217464	725.4000244
1126.775345	724.4000244
1127.333168	731.0
1127.890935	732.5999756
1128.448644	729.7999878
1129.006297	736.4000244
1129.563892	731.2000122
1130.12143	733.4000244
1130.678911	729.7999878
1131.236335	730.5999756
1131.793701	730.5999756
1132.351011	726.7999878
1132.908263	726.4000244
1133.465458	728.7999878
1134.022597	729.4000244
1134.579678	730.2000122
1135.136702	733.2000122
1135.693669	727.4000244
1136.250578	722.0
1136.807431	723.2000122
1137.364227	722.5999756
1137.920965	727.2000122
1138.477647	722.5999756
1139.034271	723.2000122
1139.590839	727.7999878
1140.147349	728.5999756
1140.703802	723.2000122
1141.260198	726.0
1141.816537	726.7999878
1142.37282	724.2000122
1142.929045	725.7999878
1143.485213	724.4000244
1144.041323	724.5999756
1144.597377	725.0
1145.153374	730.7999878
1145.709314	720.5999756
1146.265197	725.7999878
1146.821023	726.5999756
1147.376792	727.5999756
1147.932503	727.7999878
1148.488158	729.2000122
1149.043756	727.4000244
1149.599297	722.7999878
1150.154781	726.4000244
1150.710207	725.2000122
1151.265577	727.4000244
1151.82089	725.4000244
1152.376146	730.0
1152.931345	728.2000122
1153.486487	725.5999756
1154.041572	724.5999756
1154.5966	724.5999756
1155.151571	730.4000244
1155.706485	727.2000122
1156.261342	726.2000122
1156.816142	731.7999878
1157.370885	728.2000122
1157.925572	726.4000244
1158.480201	727.2000122
1159.034774	727.7999878
1159.589289	723.7999878
1160.143748	725.2000122
1160.698149	724.4000244
1161.252494	728.5999756
1161.806782	727.0
1162.361013	727.5999756
1162.915187	727.4000244
1163.469304	725.0
1164.023364	726.2000122
1164.577368	723.7999878
1165.131314	726.5999756
1165.685204	722.5999756
1166.239036	725.0
1166.792812	729.2000122
1167.346531	725.7999878
1167.900193	723.0
1168.453798	728.4000244
1169.007347	721.2000122
1169.560838	729.0
1170.114273	723.4000244
1170.66765	727.2000122
1171.220971	724.5999756
1171.774235	726.0
1172.327443	726.4000244
1172.880593	726.5999756
1173.433687	724.4000244
1173.986723	725.0
1174.539703	725.2000122
1175.092626	725.5999756
1175.645493	718.0
1176.198302	721.0
1176.751055	719.4000244
1177.303751	723.2000122
1177.85639	719.5999756
1178.408972	718.4000244
1178.961498	724.2000122
1179.513966	720.7999878
1180.066378	723.5999756
1180.618733	718.5999756
1181.171032	724.2000122
1181.723273	722.2000122
1182.275458	724.0
1182.827586	726.2000122
1183.379657	723.7999878
1183.931672	723.7999878
1184.48363	723.7999878
1185.035531	726.2000122
1185.587375	725.4000244
1186.139162	720.5999756
1186.690893	725.7999878
1187.242567	720.2000122
1187.794184	723.7999878
1188.345745	721.5999756
1188.897249	724.2000122
1189.448696	722.5999756
1190.000086	723.2000122
1190.55142	725.5999756
1191.102697	719.0
1191.653918	721.5999756
1192.205081	724.0
1192.756188	722.5999756
1193.307238	738.0
1193.858232	725.2000122
1194.409169	722.5999756
1194.960049	726.2000122
1195.510872	726.4000244
1196.061639	724.4000244
1196.612349	723.2000122
1197.163003	723.4000244
1197.713599	720.7999878
1198.264139	720.7999878
1198.814623	722.2000122
1199.36505	722.7999878
1199.91542	720.7999878
1200.465734	722.7999878
1201.01599	725.7999878
1201.566191	723.4000244
1202.116334	720.4000244
1202.666421	722.0
1203.216452	723.4000244
1203.766425	724.5999756
1204.316343	722.4000244
1204.866203	727.7999878
1205.416007	726.4000244
1205.965754	723.4000244
1206.515445	723.7999878
1207.065079	724.4000244
1207.614657	724.2000122
1208.164177	724.0
1208.713642	725.2000122
1209.26305	718.7999878
1209.812401	724.4000244
1210.361695	720.0
1210.910933	722.5999756
1211.460115	725.4000244
1212.00924	721.2000122
1212.558308	719.5999756
1213.10732	720.5999756
1213.656275	722.2000122
1214.205174	726.7999878
1214.754016	722.4000244
1215.302801	723.4000244
1215.85153	723.0
1216.400203	719.0
1216.948819	723.4000244
1217.497378	728.7999878
1218.045881	720.5999756
1218.594327	720.4000244
1219.142717	720.0
1219.691051	718.0
1220.239327	718.2000122
1220.787548	724.0
1221.335712	723.0
1221.883819	720.7999878
1222.43187	724.4000244
1222.979864	719.4000244
1223.527802	724.4000244
1224.075683	723.0
1224.623508	723.0
1225.171277	718.7999878
1225.718989	725.2000122
1226.266644	721.2000122
1226.814243	724.0
1227.361786	721.0
1227.909272	723.5999756
1228.456702	719.0
1229.004075	723.2000122
1229.551392	720.5999756
1230.098652	719.0
1230.645856	720.5999756
1231.193003	718.5999756
1231.740094	726.2000122
1232.287129	723.2000122
1232.834107	717.2000122
1233.381029	718.7999878
1233.927894	718.5999756
1234.474703	726.4000244
1235.021455	722.0
1235.568151	719.5999756
1236.114791	725.7999878
1236.661374	723.0
1237.207901	720.7999878
1237.754372	724.5999756
1238.300786	726.2000122
1238.847144	726.5999756
1239.393445	724.0
1239.93969	719.7999878
1240.485879	725.5999756
1241.032011	718.2000122
1241.578087	727.7999878
1242.124106	721.4000244
1242.67007	719.4000244
1243.215976	718.7999878
1243.761827	719.0
1244.307621	721.7999878
1244.853359	722.4000244
1245.39904	723.2000122
1245.944665	719.2000122
1246.490234	722.4000244
1247.035746	721.7999878
1247.581203	721.4000244
1248.126602	718.4000244
1248.671946	721.5999756
1249.217233	719.7999878
1249.762464	723.2000122
1250.307638	720.5999756
1250.852757	724.4000244
1251.397819	719.5999756
1251.942824	720.7999878
1252.487774	718.4000244
1253.032667	716.5999756
1253.577503	717.4000244
1254.122284	720.7999878
1254.667008	718.7999878
1255.211676	720.0
1255.756288	723.0
1256.300843	723.2000122
1256.845342	716.2000122
1257.389785	722.0
1257.934172	721.0
1258.478502	720.7999878
1259.022776	722.2000122
1259.566994	727.7999878
1260.111156	727.2000122
1260.655261	723.5999756
1261.199311	720.0
1261.743304	723.4000244
1262.28724	722.7999878
1262.831121	716.7999878
1263.374945	724.4000244
1263.918713	727.0
1264.462425	729.4000244
1265.006081	736.4000244
1265.54968	754.2000122
1266.093223	746.7999878
1266.636711	731.0
1267.180141	726.4000244
1267.723516	723.2000122
1268.266835	721.0
1268.810097	719.4000244
1269.353303	721.0
1269.896453	719.5999756
1270.439547	721.0
1270.982584	718.0
1271.525566	721.2000122
1272.068491	719.2000122
1272.61136	721.7999878
1273.154173	728.2000122
1273.69693	717.5999756
1274.239631	721.2000122
1274.782275	725.2000122
1275.324864	721.7999878
1275.867396	717.4000244
1276.409872	725.2000122
1276.952292	718.4000244
1277.494656	719.2000122
1278.036964	722.0
1278.579215	718.5999756
1279.121411	718.7999878
1279.66355	720.0
1280.205634	719.0
1280.747661	725.2000122
1281.289632	725.0
1281.831547	725.7999878
1282.373406	726.0
1282.915209	720.5999756
1283.456955	728.4000244
1283.998646	734.7999878
1284.540281	749.0
1285.081859	825.7999878
1285.623381	1134.400024
1286.164848	1103.0
1286.706258	811.4000244
1287.247612	744.2000122
1287.788911	735.4000244
1288.330153	725.0
1288.871339	725.2000122
1289.412469	727.2000122
1289.953543	720.0
1290.494561	722.4000244
1291.035523	717.4000244
1291.576428	720.4000244
1292.117278	716.5999756
1292.658072	719.7999878
1293.19881	719.0
1293.739492	722.5999756
1294.280118	720.2000122
1294.820687	723.2000122
1295.361201	722.2000122
1295.901659	718.5999756
1296.442061	717.2000122
1296.982406	715.0
1297.522696	719.5999756
1298.06293	716.2000122
1298.603108	722.0
1300.223305	718.4000244
1300.763259	721.5999756
1301.303157	720.7999878
1301.842999	716.5999756
1302.382785	716.2000122
1302.922515	720.0
1303.462189	718.7999878
1304.001807	718.0
1304.541369	721.4000244
1305.080875	719.0
1305.620326	715.5999756
1306.15972	720.5999756
1306.699058	721.4000244
1307.238341	715.2000122
1307.777567	719.0
1308.316738	714.7999878
1308.855853	719.4000244
1309.394912	715.0
1309.933915	718.5999756
1310.472862	719.2000122
1311.011753	719.7999878
1311.550588	720.5999756
1312.089367	726.0
1312.62809	717.2000122
1313.166758	716.5999756
1313.70537	719.7999878
1314.243925	722.7999878
1314.782425	719.2000122
1315.320869	723.0
1315.859257	718.7999878
1316.397589	715.4000244
1316.935866	715.4000244
1317.474086	718.4000244
1318.012251	716.0
1318.55036	713.0
1319.088413	717.7999878
1319.62641	716.4000244
1320.164351	718.4000244
1320.702236	719.4000244
1321.240066	717.4000244
1321.777839	720.5999756
1322.315557	714.2000122
1322.853219	718.4000244
1323.390826	720.2000122
1323.928376	719.5999756
1324.465871	716.2000122
1325.003309	719.2000122
1325.540692	718.5999756
1326.07802	713.4000244
1326.615291	721.7999878
1327.152506	716.0
1327.689666	719.4000244
1328.22677	713.0
1328.763818	712.4000244
1329.300811	715.4000244
1329.837747	722.4000244
1330.374628	717.2000122
1330.911453	717.0
1331.448222	719.7999878
1331.984936	721.4000244
1332.521594	719.0
1333.058196	722.2000122
1333.594742	717.0
1334.131232	714.4000244
1334.667667	720.2000122
1336.276637	722.5999756
1336.812848	716.2000122
1337.349004	716.2000122
1337.885105	715.4000244
1338.421149	715.0
1338.957138	715.4000244
1339.493071	716.7999878
1340.028949	718.0
1340.56477	715.7999878
1341.100536	718.4000244
1341.636246	715.5999756
1342.171901	715.2000122
1342.7075	718.2000122
1343.243043	716.7999878
1343.77853	714.7999878
1344.313962	719.2000122
1344.849338	723.0
1345.384659	712.4000244
1345.919923	719.2000122
1346.455133	719.2000122
1346.990286	719.0
1347.525384	716.2000122
1348.060426	717.0
1348.595412	714.7999878
1349.130343	714.5999756
1349.665218	717.2000122
1350.200037	718.2000122
1350.734801	716.5999756
1351.269509	721.7999878
1351.804162	718.0
1352.338758	721.7999878
1352.8733	716.4000244
1353.407785	715.4000244
1353.942215	718.0
1354.476589	718.5999756
1355.010908	715.5999756
1355.545171	718.5999756
1356.079379	716.0
1356.61353	715.5999756
1357.147627	718.5999756
1357.681667	715.2000122
1358.215652	718.0
1358.749582	715.2000122
1359.283456	717.7999878
1359.817274	713.2000122
1360.351037	720.0
1360.884744	715.0
1361.418395	715.2000122
1361.951991	718.0
1362.485531	720.4000244
1363.019016	717.4000244
1363.552445	715.0
1364.085819	721.2000122
1364.619137	713.7999878
1365.1524	717.2000122
1365.685607	716.7999878
1366.218758	716.4000244
1366.751854	719.2000122
1367.284894	718.4000244
1367.817879	715.7999878
1368.350808	718.7999878
1368.883682	719.7999878
1369.4165	719.5999756
1369.949263	716.7999878
1370.48197	726.4000244
1371.014622	728.4000244
1371.547218	720.7999878
1372.079758	718.4000244
1372.612244	714.0
1373.144673	713.7999878
1373.677047	711.5999756
1374.209366	716.7999878
1374.741629	721.7999878
1375.273836	713.2000122
1375.805989	714.5999756
1376.338085	712.2000122
1376.870126	718.2000122
1377.402112	717.0
1377.934042	718.2000122
1378.465917	717.4000244
1378.997736	716.2000122
1379.5295	714.4000244
1380.061208	716.4000244
1380.592861	718.4000244
1381.124459	716.5999756
1381.656	716.0
1382.187487	717.5999756
1382.718918	716.4000244
1383.250294	717.2000122
1383.781614	717.2000122
1384.312879	717.0
1384.844088	717.4000244
1385.375242	721.2000122
1385.90634	726.5999756
1386.437383	725.0
1386.968371	732.4000244
1387.499303	740.5999756
1388.03018	783.5999756
1388.561001	1087.199951
1389.091767	1557.599976
1389.622478	981.7999878
1390.153133	760.7999878
1390.683733	729.4000244
1391.214277	724.7999878
1391.744766	721.7999878
1392.2752	727.5999756
1392.805578	718.7999878
1393.335901	722.2000122
1393.866168	718.0
1394.396381	720.2000122
1394.926537	718.7999878
1395.456639	715.4000244
1395.986685	718.0
1396.516675	717.7999878
1397.046611	712.0
1397.576491	720.7999878
1398.106315	712.7999878
1398.636084	717.2000122
1399.165798	715.7999878
1399.695457	714.4000244
1400.22506	716.5999756
1400.754608	711.7999878
1401.284101	715.7999878
1401.813538	711.4000244
1402.34292	719.4000244
1402.872247	717.4000244
1403.401518	717.5999756
1403.930734	714.0
1404.459895	716.4000244
1404.989	712.4000244
1405.51805	724.5999756
1406.047045	718.4000244
1406.575984	716.5999756
1407.104869	720.4000244
1407.633697	719.5999756
1408.162471	721.7999878
1408.691189	722.2000122
1409.219852	721.0
1409.74846	742.2000122
1410.277013	784.0
1410.80551	762.2000122
1411.333952	720.5999756
1411.862339	719.7999878
1412.39067	721.4000244
1412.918946	719.0
1413.447167	717.7999878
1413.975333	717.5999756
1414.503444	711.0
1415.031499	716.5999756
1415.559499	727.2000122
1416.087444	713.5999756
1416.615333	723.5999756
1417.143167	715.4000244
1417.670947	716.0
1418.19867	715.5999756
1418.726339	719.2000122
1419.253952	717.7999878
1419.781511	716.0
1420.309014	718.5999756
1420.836461	715.5999756
1421.363854	712.7999878
1421.891191	715.0
1422.418474	716.5999756
1422.945701	719.5999756
1423.472872	719.5999756
1423.999989	721.5999756
1424.52705	712.2000122
1425.054057	718.4000244
1425.581008	709.2000122
1426.107904	715.7999878
1426.634745	715.5999756
1427.16153	720.4000244
1427.688261	717.5999756
1428.214936	716.4000244
1428.741556	713.4000244
1429.268121	719.5999756
1429.794631	716.4000244
1430.321085	714.4000244
1430.847485	711.2000122
1431.373829	711.2000122
1431.900118	718.2000122
1432.426353	717.5999756
1432.952532	717.0
1433.478655	714.4000244
1434.004724	713.7999878
1434.530738	716.5999756
1435.056696	718.5999756
1435.5826	716.4000244
1436.108448	715.5999756
1436.634241	715.4000244
1437.159979	712.2000122
1437.685662	713.7999878
1438.21129	711.0
1438.736863	714.7999878
1439.262381	718.0
1439.787843	713.2000122
1440.313251	713.4000244
1440.838603	709.7999878
1441.3639	712.7999878
1441.889143	713.2000122
1442.41433	716.2000122
1442.939462	715.5999756
1443.464539	716.5999756
1443.989561	715.0
1444.514528	712.5999756
1445.03944	713.2000122
1445.564297	714.2000122
1446.089099	717.0
1446.613846	715.0
1447.138537	711.5999756
1447.663174	717.5999756
1448.187756	714.7999878
1448.712282	711.5999756
1449.236754	717.0
1449.761171	715.4000244
1450.285532	710.2000122
1450.809839	713.5999756
1451.33409	716.2000122
1451.858287	715.2000122
1452.382428	711.7999878
1452.906515	715.4000244
1453.430546	712.5999756
1453.954523	715.4000244
1454.478444	718.2000122
1455.002311	713.4000244
1455.526123	710.2000122
1456.049879	710.2000122
1456.573581	711.4000244
1457.097227	715.7999878
1457.620819	714.0
1458.144356	713.7999878
1458.667837	711.0
1459.191264	715.7999878
1459.714636	718.4000244
1460.237952	713.0
1460.761214	719.5999756
1461.284421	713.4000244
1461.807573	714.2000122
1462.33067	710.7999878
1462.853712	712.2000122
1463.376699	712.4000244
1463.899632	715.7999878
1464.422509	716.7999878
1464.945331	716.2000122
1465.468099	718.7999878
1465.990811	715.5999756
1466.513469	712.4000244
1467.036071	711.7999878
1467.558619	715.7999878
1468.081112	714.4000244
1468.60355	709.4000244
1469.125933	714.2000122
1469.648261	713.2000122
1470.170534	711.2000122
1470.692752	710.2000122
1471.214916	709.2000122
1471.737024	713.5999756
1472.259078	711.7999878
1472.781077	712.2000122
1473.303021	710.0
1473.82491	712.5999756
1474.346744	714.5999756
1474.868523	713.7999878
1475.390248	715.0
1475.911917	708.2000122
1476.433532	710.7999878
1476.955092	714.2000122
1477.476597	716.4000244
1477.998047	713.7999878
1478.519442	712.5999756
1479.040783	711.0
1479.562068	712.0
1480.083299	712.4000244
1480.604475	712.4000244
1481.125596	709.4000244
1481.646663	710.7999878
1482.167674	714.2000122
1482.688631	715.2000122
1483.209533	713.4000244
1483.73038	712.2000122
1484.251172	710.2000122
1484.771909	709.5999756
1485.292592	712.0
1485.81322	709.5999756
1486.333793	713.0
1486.854311	716.0
1487.374775	714.2000122
1487.895183	710.7999878
1488.415537	715.5999756
1488.935836	712.2000122
1489.456081	713.5999756
1489.97627	713.4000244
1490.496405	712.7999878
1491.016485	711.7999878
1491.536511	711.5999756
1492.056481	710.0
1492.576397	708.4000244
1493.096258	715.7999878
1493.616064	710.0
1494.135816	712.2000122
1494.655513	711.4000244
1495.175155	709.7999878
1495.694742	709.4000244
1496.214274	711.2000122
1496.733752	716.2000122
1497.253175	709.7999878
1497.772544	711.4000244
1498.291858	714.4000244
1498.811116	709.4000244
1499.330321	712.5999756
1499.84947	712.2000122
1500.368565	711.4000244
1500.887605	711.2000122
1501.406591	711.5999756
1501.925521	710.0
1502.444397	712.7999878
1502.963219	711.5999756
1503.481985	711.5999756
1504.000697	713.7999878
1504.519355	711.4000244
1505.037957	712.2000122
1505.556505	713.4000244
1506.074999	713.4000244
1506.593437	708.0
1507.111821	709.5999756
1507.63015	710.4000244
1508.148425	707.4000244
1508.666645	710.5999756
1509.18481	711.4000244
1509.702921	709.0
1510.220977	711.7999878
1510.738979	716.2000122
1511.256925	713.0
1511.774817	711.5999756
1512.292655	709.7999878
1512.810438	706.0
1513.328166	710.7999878
1513.84584	709.7999878
1514.363459	709.0
1514.881023	709.2000122
1515.398533	714.5999756
1515.915988	707.7999878
1516.433389	709.0
1516.950734	708.7999878
1517.468026	707.4000244
1517.985263	711.7999878
1518.502445	707.7999878
1519.019572	711.2000122
1519.536645	710.2000122
1520.053664	708.5999756
1520.570628	711.7999878
1521.087537	713.0
1521.604392	710.7999878
1522.121192	712.2000122
1522.637937	710.5999756
1523.154628	713.7999878
1523.671265	710.5999756
1524.187847	714.7999878
1524.704374	707.7999878
1525.220847	709.5999756
1525.737265	707.5999756
1526.253629	708.7999878
1526.769938	710.7999878
1527.286192	710.5999756
1527.802392	704.4000244
1528.318538	708.4000244
1528.834629	711.7999878
1529.350666	711.7999878
1529.866648	712.0
1530.382575	709.7999878
1530.898448	712.2000122
1531.414266	707.4000244
1531.93003	712.4000244
1532.44574	713.5999756
1532.961395	712.4000244
1533.476995	712.5999756
1533.992541	710.2000122
1534.508033	708.4000244
1535.02347	709.4000244
1535.538852	711.5999756
1536.05418	709.5999756
1536.569454	710.0
1537.084673	711.4000244
1537.599837	710.2000122
1538.114947	706.0
1538.630003	707.7999878
1539.145004	711.7999878
1539.659951	711.7999878
1540.174843	708.5999756
1540.689681	708.4000244
1541.204465	712.4000244
1541.719194	708.7999878
1542.233868	708.5999756
1542.748488	708.4000244
1543.263054	710.4000244
1543.777565	706.2000122
1544.292022	705.7999878
1544.806424	707.5999756
1545.320772	714.2000122
1545.835066	715.2000122
1546.349305	711.2000122
1546.863489	709.5999756
1547.37762	709.5999756
1547.891696	706.7999878
1548.405717	715.2000122
1548.919684	705.7999878
1549.433597	710.2000122
1549.947455	707.7999878
1550.461259	708.5999756
1550.975009	708.5999756
1551.488704	710.4000244
1552.002345	708.4000244
1552.515931	712.0
1553.029463	713.2000122
1553.542941	708.5999756
1554.056364	705.7999878
1554.569733	708.4000244
1555.083048	708.5999756
1555.596308	706.5999756
1556.109514	707.0
1556.622665	708.0
1557.135762	708.2000122
1557.648805	714.2000122
1558.161794	709.0
1558.674728	707.4000244
1559.187608	710.5999756
1559.700433	706.4000244
1560.213205	712.2000122
1560.725921	706.5999756
1561.238584	712.5999756
1561.751192	711.5999756
1562.263746	712.4000244
1562.776246	705.0
1563.288691	712.2000122
1563.801082	709.7999878
1564.313419	703.7999878
1564.825701	710.4000244
1565.337929	707.5999756
1565.850103	709.2000122
1566.362223	709.7999878
1566.874288	705.2000122
1567.386299	707.5999756
1567.898256	708.5999756
1568.410158	708.0
1568.922007	711.2000122
1569.4338	707.4000244
1569.94554	706.7999878
1570.457226	708.0
1570.968857	709.2000122
1571.480434	707.2000122
1571.991956	708.0
1572.503425	711.2000122
1573.014839	707.4000244
1573.526199	708.2000122
1574.037505	709.0
1574.548756	710.4000244
1575.059953	705.5999756
1575.571096	705.5999756
1576.082185	715.0
1576.59322	713.0
1577.1042	704.4000244
1577.615126	711.2000122
1578.125998	708.0
1578.636816	710.5999756
1579.14758	706.5999756
1579.658289	706.0
1580.168944	706.2000122
1580.679545	709.4000244
1581.190092	709.4000244
1581.700585	707.0
1582.211023	707.5999756
1582.721407	709.5999756
1583.231737	705.7999878
1583.742013	708.0
1584.252235	708.0
1584.762403	706.5999756
1585.272516	706.4000244
1585.782575	710.2000122
1586.292581	705.5999756
1586.802532	707.5999756
1587.312428	704.5999756
1587.822271	705.0
1588.33206	707.2000122
1588.841794	708.5999756
1589.351474	707.5999756
1589.8611	708.4000244
1590.370672	708.0
1590.88019	707.7999878
1591.389654	704.4000244
1591.899064	705.7999878
1592.408419	704.5999756
