1042.414189	781.5
1042.980685	776.5
1043.547124	777.75
1044.113505	775.75
1044.679828	774.25
1045.246093	768.75
1045.8123	766.75
1046.378449	771.5
1046.94454	770.0
1047.510573	762.75
1048.076548	767.5
1048.642465	760.75
1049.208325	764.5
1049.774126	762.75
1050.339869	759.5
1050.905555	755.0
1051.471183	745.25
1052.036752	759.0
1052.602264	745.25
1053.167718	744.5
1053.733114	744.75
1054.298452	747.0
1054.863733	742.75
1055.428955	744.75
1055.994119	734.0
1056.559226	735.25
1057.124275	742.0
1057.689266	741.5
1058.254199	736.25
1058.819074	738.0
1059.383891	735.75
1059.94865	731.0
1060.513352	732.75
1061.077996	740.25
1061.642582	735.25
1062.20711	733.0
1062.77158	732.75
1063.335992	737.0
1063.900347	732.25
1064.464643	731.25
1065.028882	730.0
1065.593063	727.25
1066.157187	730.25
1066.721252	735.25
1067.28526	735.0
1067.84921	726.5
1068.413102	727.0
1068.976936	732.75
1069.540713	734.0
1070.104431	739.5
1070.668092	732.75
1071.231696	727.25
1071.795241	735.5
1072.358729	728.5
1072.922159	727.25
1073.485531	727.75
1074.048845	727.75
1074.612102	730.25
1075.175301	731.75
1075.738442	731.5
1076.301525	733.5
1076.864551	731.5
1077.427519	731.25
1077.990429	736.5
1078.553281	727.5
1079.116076	728.0
1079.678813	728.5
1080.241492	731.25
1080.804114	731.25
1081.366678	729.25
1081.929184	729.75
1082.491633	728.0
1083.054024	733.0
1083.616357	729.25
1084.178632	731.25
1084.74085	730.25
1085.30301	726.0
1085.865113	726.0
1086.427158	735.5
1086.989145	730.0
1087.551074	729.25
1088.112946	732.75
1088.67476	726.5
1089.236517	725.75
1089.798216	720.0
1090.359857	724.5
1090.92144	728.25
1091.482966	729.5
1092.044435	733.25
1092.605845	728.75
1093.167199	727.75
1093.728494	722.75
1094.289732	728.5
1094.850912	727.0
1095.412035	732.0
1095.9731	730.5
1096.534107	730.0
1097.095057	734.75
1097.65595	723.0
1098.216784	731.25
1098.777561	726.5
1099.338281	728.5
1099.898943	733.0
1100.459547	721.75
1101.020094	730.0
1101.580584	722.0
1102.141015	724.25
1102.701389	732.25
1103.261706	727.25
1103.821965	727.25
1104.382167	727.5
1104.942311	727.75
1105.502397	728.25
1106.062426	726.5
1106.622398	725.0
1107.182312	726.5
1107.742168	727.5
1108.301967	731.25
1108.861708	727.0
1109.421392	726.25
1109.981019	731.75
1110.540587	722.5
1111.100099	730.25
1111.659553	733.25
1112.218949	728.25
1112.778288	729.75
1113.33757	729.75
1113.896794	726.75
1114.45596	725.5
1115.015069	730.75
1115.574121	725.0
1116.133115	734.25
1116.692052	736.5
1117.250931	735.75
1117.809753	732.0
1118.368517	730.0
1118.927224	726.75
1119.485873	727.0
1120.044465	728.5
1120.603	728.25
1121.161477	733.5
1121.719897	727.0
1122.278259	729.0
1122.836564	728.0
1123.394812	727.25
1123.953002	735.5
1124.511135	735.5
1125.06921	734.75
1125.627228	729.0
1126.185189	734.5
1126.743092	736.25
1127.300938	735.75
1127.858726	735.5
1128.416457	733.75
1128.974131	743.25
1129.531748	734.25
1130.089307	732.25
1130.646808	733.25
1131.204252	731.0
1131.761639	730.75
1132.318969	719.5
1132.876241	729.75
1133.433456	729.75
1133.990614	725.5
1134.547714	730.75
1135.104757	731.0
1135.661743	731.5
1136.218671	731.25
1136.775542	730.5
1137.332356	732.75
1137.889112	734.5
1138.445811	725.5
1139.002453	725.75
1139.559037	726.25
1140.115565	729.5
1140.672035	729.0
1141.228447	730.0
1141.784803	734.5
1142.341101	731.0
1142.897342	729.25
1143.453525	737.25
1144.009651	729.5
1144.565721	727.75
1145.121732	730.75
1145.677687	727.75
1146.233584	732.25
1146.789424	731.5
1147.345207	729.5
1147.900933	733.75
1148.456601	733.0
1149.012212	732.25
1149.567766	733.0
1150.123263	729.5
1150.678702	728.5
1151.234085	732.0
1151.78941	731.25
1152.344678	726.25
1152.899888	733.25
1153.455042	726.0
1154.010138	731.75
1154.565177	728.0
1155.120159	734.25
1155.675084	734.25
1156.229951	732.5
1156.784762	731.75
1157.339515	732.75
1157.894211	729.25
1158.44885	730.0
1159.003432	737.0
1159.557956	728.5
1160.112424	733.25
1160.666834	727.25
1161.221187	729.75
1161.775483	734.0
1162.329722	732.0
1162.883904	731.5
1163.438029	733.5
1163.992096	737.0
1164.546107	734.25
1165.10006	736.0
1165.653956	735.5
1166.207795	734.25
1166.761577	737.0
1167.315302	735.5
1167.86897	736.25
1168.422581	737.5
1168.976134	739.0
1169.529631	733.75
1170.08307	731.5
1170.636453	737.0
1171.189778	740.5
1171.743046	736.0
1172.296257	733.75
1172.849412	730.0
1173.402509	731.5
1173.955549	734.25
1174.508532	729.75
1175.061458	727.25
1175.614327	729.0
1176.167138	725.0
1176.719893	730.75
1177.272591	726.25
1177.825232	726.0
1178.377816	728.25
1178.930342	730.25
1179.482812	722.5
1180.035225	727.0
1180.587581	724.25
1181.139879	724.5
1181.692121	727.25
1182.244306	728.0
1182.796434	729.25
1183.348504	728.0
1183.900518	725.75
1184.452475	732.0
1185.004375	727.25
1185.556218	721.25
1186.108004	724.5
1186.659733	726.25
1187.211405	730.5
1187.76302	721.75
1188.314578	726.0
1188.866079	727.75
1189.417523	723.75
1189.96891	724.75
1190.520241	727.75
1191.071514	727.75
1191.622731	727.0
1192.17389	732.25
1192.724993	722.0
1193.276039	752.75
1193.827027	728.25
1194.377959	726.25
1194.928834	729.75
1195.479653	730.0
1196.030414	725.5
1196.581118	728.5
1197.131766	726.0
1197.682356	724.75
1198.23289	728.5
1198.783367	726.0
1199.333786	726.75
1199.88415	727.25
1200.434456	731.75
1200.984705	730.0
1201.534898	728.25
1202.085033	728.5
1202.635112	727.25
1203.185134	730.75
1203.735099	727.5
1204.285007	732.75
1204.834859	727.5
1205.384653	730.25
1205.934391	724.25
1206.484072	723.0
1207.033696	729.0
1207.583263	731.25
1208.132774	725.0
1208.682228	731.75
1209.231624	728.5
1209.780965	730.5
1210.330248	725.5
1210.879474	727.25
1211.428644	732.0
1211.977757	730.0
1212.526813	723.75
1213.075813	726.0
1213.624755	729.25
1214.173641	727.75
1214.72247	733.0
1215.271242	727.5
1215.819958	730.75
1216.368617	734.0
1216.917219	731.0
1217.465764	726.5
1218.014253	734.75
1218.562685	728.75
1219.11106	732.25
1219.659378	731.75
1220.20764	732.25
1220.755845	729.0
1221.303993	728.25
1221.852085	727.0
1222.400119	726.75
1222.948097	732.5
1223.496019	725.75
1224.043883	730.25
1224.591691	728.75
1225.139443	730.25
1225.687137	728.5
1226.234775	734.0
1226.782357	730.25
1227.329881	729.25
1227.877349	732.5
1228.42476	729.75
1228.972115	728.25
1229.519413	735.25
1230.066654	734.0
1230.613839	731.25
1231.160967	729.0
1231.708038	731.25
1232.255053	729.5
1232.802011	730.5
1233.348912	729.75
1233.895757	729.75
1234.442545	729.75
1234.989277	731.5
1235.535951	730.5
1236.08257	728.0
1236.629131	739.0
1237.175636	728.25
1237.722085	725.75
1238.268477	735.5
1238.814812	732.75
1239.361091	727.5
1239.907313	728.5
1240.453478	726.25
1240.999587	727.25
1241.54564	733.0
1242.091636	725.75
1242.637575	735.75
1243.183457	728.5
1243.729284	729.75
1244.275053	732.25
1244.820766	732.0
1245.366423	736.75
1245.912022	732.25
1246.457566	732.5
1247.003053	732.0
1247.548483	730.5
1248.093857	733.5
1248.639174	727.25
1249.184435	730.25
1249.729639	731.5
1250.274787	733.75
1250.819878	737.75
1251.364912	735.5
1251.909891	734.75
1252.454812	734.5
1252.999677	730.75
1253.544486	733.25
1254.089238	733.0
1254.633934	734.75
1255.178573	733.5
1255.723156	732.5
1256.267682	730.0
1256.812152	732.75
1257.356565	736.5
1257.900922	731.75
1258.445223	735.75
1258.989467	729.75
1259.533654	736.75
1260.077785	747.75
1260.62186	736.0
1261.165878	732.5
1261.70984	731.5
1262.253745	738.0
1262.797594	741.5
1263.341386	733.5
1263.885123	743.75
1264.428802	738.5
1264.972425	747.0
1265.515992	759.5
1266.059503	766.25
1266.602957	748.75
1267.146354	743.25
1267.689696	735.25
1268.23298	739.5
1268.776209	736.25
1269.319381	734.0
1269.862497	745.75
1270.405556	734.25
1270.948559	741.25
1271.491506	735.5
1272.034396	735.75
1272.57723	742.75
1273.120007	735.25
1273.662728	733.0
1274.205393	737.5
1274.748002	740.5
1275.290554	740.0
1275.83305	735.5
1276.375489	741.25
1276.917872	733.5
1277.460199	732.75
1278.00247	740.0
1278.544684	738.0
1279.086842	735.75
1279.628943	737.75
1280.170989	736.25
1280.712978	735.5
1281.25491	736.75
1281.796787	746.0
1282.338607	736.25
1282.880371	746.5
1283.422078	745.0
1283.963729	750.25
1284.505324	763.0
1285.046863	786.0
1285.588345	909.75
1286.129772	1126.5
1286.671142	988.0
1287.212455	802.5
1287.753713	763.5
1288.294914	747.5
1288.836059	745.5
1289.377147	747.0
1289.91818	738.75
1290.459156	741.5
1291.000076	740.5
1291.54094	736.5
1292.081747	739.75
1292.622499	738.75
1293.163194	736.25
1293.703833	740.75
1294.244415	741.5
1294.784942	735.5
1295.325412	740.75
1295.865826	737.0
1296.406184	740.75
1296.946486	739.5
1297.486731	736.75
1298.026921	738.0
1298.567054	745.5
1299.107131	741.25
1299.647152	742.0
1300.187116	734.25
1300.727025	740.75
1301.266877	743.25
1301.806673	744.75
1302.346413	745.5
1302.886097	743.75
1303.425725	736.25
1303.965297	740.0
1304.504812	737.0
1305.044272	743.0
1305.583675	737.5
1306.123022	739.75
1306.662313	736.75
1307.201548	730.75
1307.740727	735.75
1308.279849	735.0
1308.818916	735.5
1309.357926	732.5
1309.896881	736.75
1310.435779	736.75
1310.974621	734.75
1311.513407	737.5
1312.052137	731.75
1312.590811	730.75
1313.129429	729.5
1313.667991	738.25
1314.206497	728.75
1314.744946	736.75
1315.28334	730.75
1315.821678	732.25
1316.359959	732.25
1316.898184	735.0
1317.436354	728.5
1317.974467	729.75
1318.512525	735.5
1319.050526	724.0
1319.588471	729.0
1320.12636	731.5
1320.664194	734.75
1321.201971	734.25
1321.739692	729.75
1322.277357	731.25
1322.814967	727.0
1323.35252	727.75
1323.890017	734.0
1324.427458	727.25
1324.964843	732.0
1325.502173	729.5
1326.039446	727.75
1326.576663	731.5
1327.113824	723.25
1327.65093	724.0
1328.187979	728.75
1328.724972	730.0
1329.26191	730.0
1329.798791	727.0
1330.335617	728.75
1330.872386	727.0
1331.4091	723.75
1331.945758	733.25
1332.48236	725.25
1333.018905	728.0
1333.555395	732.25
1334.091829	733.75
1334.628207	721.5
1335.164529	728.75
1335.700796	730.75
1336.237006	727.75
1336.77316	729.5
1337.309259	724.0
1337.845301	724.0
1338.381288	724.75
1338.917219	727.25
1339.453094	729.0
1339.988913	728.25
1340.524676	727.75
1341.060383	724.25
1341.596034	724.0
1342.13163	728.25
1342.66717	726.5
1343.202653	723.75
1343.738081	729.0
1344.273453	729.25
1344.80877	727.75
1345.34403	734.5
1345.879235	725.5
1346.414383	730.25
1346.949476	726.75
1347.484513	729.25
1348.019494	725.0
1348.55442	730.75
1349.089289	727.0
1349.624103	732.0
1350.158861	728.25
1350.693563	734.5
1351.228209	726.25
1351.7628	727.0
1352.297334	729.25
1352.831813	732.0
1353.366236	727.25
1353.900604	739.5
1354.434915	723.5
1354.969171	728.25
1355.503371	724.0
1356.037515	721.0
1356.571604	730.75
1357.105636	727.5
1357.639613	727.75
1358.173535	732.5
1358.7074	734.0
1359.24121	735.5
1359.774964	727.75
1360.308662	724.0
1360.842304	733.5
1361.375891	731.0
1361.909422	729.75
1362.442897	725.25
1362.976317	725.5
1363.50968	729.25
1364.042989	730.25
1364.576241	731.5
1365.109438	727.0
1365.642579	732.0
1366.175664	728.75
1366.708693	730.0
1367.241667	731.25
1367.774585	726.25
1368.307448	726.25
1368.840255	730.25
1369.373006	725.0
1369.905701	732.5
1370.438341	733.75
1370.970925	736.75
1371.503454	736.0
1372.035926	730.0
1372.568344	729.0
1373.100705	731.25
1373.633011	733.0
1374.165261	729.5
1374.697456	731.0
1375.229595	728.75
1375.761678	733.75
1376.293705	730.5
1376.825677	722.5
1377.357594	724.5
1377.889455	727.0
1378.42126	730.0
1378.953009	730.5
1379.484703	731.25
1380.016342	731.5
1380.547924	728.0
1381.079452	725.0
1381.610923	727.0
1382.142339	730.75
1382.673699	731.5
1383.205004	731.0
1383.736253	726.25
1384.267447	731.0
1384.798585	731.25
1385.329668	732.0
1385.860695	735.25
1386.391666	735.25
1386.922582	740.0
1387.453442	744.0
1387.984247	758.5
1388.514996	833.25
1389.04569	1191.25
1389.576328	1349.25
1390.10691	891.0
1390.637437	758.25
1391.167909	744.5
1391.698325	735.5
1392.228685	737.25
1392.75899	732.25
1393.28924	731.0
1393.819434	737.5
1394.349572	726.25
1394.879655	731.75
1395.409683	724.75
1395.939655	733.25
1396.469571	733.25
1396.999432	723.5
1397.529237	723.5
1398.058987	732.0
1398.588682	735.75
1399.118321	726.25
1399.647905	723.25
1400.177433	727.75
1400.706906	726.25
1401.236323	732.5
1401.765685	721.5
1402.294991	726.0
1402.824242	737.0
1403.353437	723.75
1403.882577	731.5
1404.411662	734.25
1404.940691	730.5
1405.469665	725.0
1405.998583	725.5
1406.527446	732.25
1407.056253	729.0
1407.585005	731.0
1408.113702	734.25
1408.642343	735.75
1409.170929	736.25
1409.69946	743.75
1410.227935	768.75
1410.756354	787.25
1411.284719	757.25
1411.813028	735.25
1412.341281	730.0
1412.869479	732.25
1413.397622	730.0
1413.92571	727.5
1414.453742	733.0
1414.981718	726.0
1415.50964	741.0
1416.037506	733.5
1416.565316	729.5
1417.093072	725.75
1417.620772	727.0
1418.148416	729.75
1418.676005	731.25
1419.203539	724.5
1419.731018	727.75
1420.258441	727.5
1420.785809	723.75
1421.313122	732.25
1421.840379	731.5
1422.367582	726.25
1422.894728	730.25
1423.42182	727.0
1423.948856	730.0
1424.475837	732.25
1425.002762	731.5
1425.529633	729.25
1426.056448	727.25
1426.583207	729.25
1427.109912	730.0
1427.636561	732.75
1428.163155	727.75
1428.689694	732.25
1429.216177	730.5
1429.742605	735.0
1430.268978	727.75
1430.795296	722.0
1431.321558	729.75
1431.847765	724.25
1432.373917	728.5
1432.900014	726.0
1433.426056	733.0
1433.952042	729.0
1434.477973	733.0
1435.003849	733.75
1435.529669	730.5
1436.055435	735.0
1436.581145	730.75
1437.1068	729.75
1437.632399	736.0
1438.157944	733.75
1438.683433	735.0
1439.208868	732.5
1439.734247	728.75
1440.25957	736.0
1440.784839	739.25
1441.310053	730.25
1441.835211	730.0
1442.360314	731.75
1442.885362	730.5
1443.410355	725.75
1443.935292	730.5
1444.460175	730.25
1444.985002	734.75
1445.509774	733.5
1446.034491	731.0
1446.559153	728.5
1447.08376	737.0
1447.608312	725.75
1448.132808	728.0
1448.65725	736.75
1449.181636	729.5
1449.705967	734.0
1450.230243	734.0
1450.754464	734.75
1451.27863	736.25
1451.802741	732.5
1452.326797	733.5
1452.850797	731.0
1453.374743	729.5
1453.898633	725.75
1454.422468	732.75
1454.946249	733.0
1455.469974	738.25
1455.993644	729.25
1456.517259	733.0
1457.040819	729.25
1457.564324	730.75
1458.087773	733.75
1458.611168	726.75
1459.134508	731.5
1459.657793	734.75
1460.181022	731.25
1460.704197	731.0
1461.227316	728.0
1461.750381	730.5
1462.27339	728.25
1462.796345	740.0
1463.842089	747.0
1464.364878	737.25
1464.887613	722.0
1465.410292	729.25
1465.932916	733.5
1467.50046	726.25
1468.022864	732.0
1468.545214	726.25
1469.067508	727.0
1469.589748	731.75
1470.111932	732.75
1470.634062	728.0
1471.156136	730.75
1471.678156	726.0
1472.20012	722.75
1472.72203	726.25
1473.243885	727.0
1473.765685	721.5
1474.28743	727.25
1474.80912	731.0
1475.330755	726.75
1475.852335	722.0
1476.37386	726.0
1476.89533	726.5
1477.416745	730.0
1477.938106	720.75
1478.459411	728.25
1478.980662	727.75
1479.501857	727.0
1480.022998	728.25
1480.544084	723.75
1481.065115	729.5
1481.586091	724.75
1482.107012	726.5
1482.627878	725.5
1483.14869	725.25
1483.669446	728.0
1484.190148	729.75
1484.710794	728.5
1485.231386	729.25
1485.751923	731.75
1486.272406	729.25
1486.792833	731.25
1487.313205	731.25
1487.833523	729.0
1488.353786	726.25
1488.873994	730.75
1489.394147	730.0
1489.914245	727.0
1490.434288	732.5
1490.954277	729.75
1491.474211	728.5
1491.99409	732.25
1492.513914	725.75
1493.033683	732.0
1493.553398	730.75
1494.073057	724.75
1494.592662	727.75
1495.112212	727.75
1495.631708	728.25
1496.151148	728.0
1496.670534	726.75
1497.189865	725.25
1497.709141	727.5
1498.228362	733.0
1498.747529	729.25
1499.266641	725.0
1499.785698	736.5
1500.3047	730.0
1500.823648	726.5
1501.34254	726.0
1501.861379	725.5
1502.380162	725.5
1502.89889	729.25
1503.417564	727.75
1503.936183	725.5
1504.454748	725.5
1504.973257	729.25
1505.491712	731.25
1506.010112	725.75
1506.528458	727.25
1507.046748	724.5
1507.564984	726.25
1508.083166	728.0
1508.601292	724.5
1509.119364	728.75
1509.637381	724.5
1510.155344	724.25
1510.673252	737.75
1511.191105	724.5
1511.708903	722.75
1512.226647	724.75
1512.744336	723.25
1513.261971	721.75
1513.77955	721.25
1514.297076	725.0
1514.814546	724.25
1515.331962	725.5
1515.849323	727.75
1516.366629	722.5
1516.883881	727.25
1517.401078	723.25
1517.918221	726.5
1518.435309	726.25
1518.952342	725.25
1519.469321	728.0
1519.986245	725.75
1520.503114	729.5
1521.019929	728.25
1521.536689	726.5
1522.053395	726.0
1522.570046	730.75
1523.086642	728.75
1523.603184	726.75
1524.119671	730.5
1524.636103	726.5
1525.152481	730.0
1525.668805	733.5
1526.185073	759.0
1526.701288	750.0
1527.217447	727.5
1527.733552	726.25
1528.249603	728.0
1528.765599	721.5
1529.28154	730.25
1529.797427	729.75
1530.313259	719.0
1530.829037	725.75
1531.34476	726.75
1531.860429	733.75
1532.376043	732.0
1532.891602	726.5
1533.407107	724.25
1533.922558	728.75
1534.437954	728.5
1534.953295	729.75
1535.468582	724.75
1535.983815	727.0
1536.498993	725.5
1537.014116	733.25
1537.529185	725.0
1538.044199	735.5
1538.559159	724.0
1539.074064	728.25
1539.588915	730.0
1540.103712	729.25
1540.618454	728.25
1541.133141	730.5
1541.647774	727.25
1542.162353	729.25
1542.676877	732.5
1543.191346	726.25
1543.705761	723.0
1544.220122	724.0
1544.734428	725.0
1545.24868	726.5
1545.762877	729.0
1546.27702	728.25
1546.791109	730.5
1547.305143	725.25
1547.819122	729.0
1548.333047	730.0
1548.846918	731.0
1549.360734	729.0
1549.874496	732.25
1550.388204	728.75
1550.901857	730.0
1551.415455	732.25
1551.929	728.5
1552.442489	724.25
1552.955925	727.25
1553.469306	726.75
1553.982632	727.25
1554.495905	731.0
1555.009123	725.25
1555.522286	725.0
1556.035395	726.25
1556.54845	731.25
1557.06145	729.25
1557.574396	731.0
1558.087288	730.5
1558.600125	727.75
1559.112908	730.25
1559.625637	729.75
1560.138311	728.0
1560.650931	723.25
1561.163497	732.75
1561.676008	723.5
1562.188465	734.25
1562.700867	730.5
1563.213216	725.25
1563.725509	730.75
1564.237749	729.75
1564.749934	733.75
1565.262065	728.0
1565.774142	729.25
1566.286164	736.75
1566.798132	730.5
1567.310046	729.75
1567.821906	736.0
1568.333711	734.75
1568.845462	733.0
1569.357158	727.0
1569.868801	730.25
1570.380389	731.75
1570.891922	728.25
1571.403402	730.75
1571.914827	735.0
1572.426198	730.0
1572.937515	731.0
1573.448777	733.0
1573.959985	731.5
1574.471139	731.75
1574.982239	735.0
1575.493285	729.0
1576.004276	733.75
1576.515213	732.5
1577.026096	735.5
1577.536924	731.75
1578.047698	734.75
1578.558419	741.25
1579.069084	738.5
1579.579696	739.5
1580.090254	736.0
1580.600757	742.5
1581.111206	744.25
1581.621601	742.75
1582.131941	734.75
1582.642228	740.75
1583.15246	738.5
1583.662638	734.25
1584.172762	737.5
1584.682832	732.25
1585.192847	739.0
1585.702809	733.5
1586.212716	729.0
1586.722569	727.25
1587.232368	736.0
1587.742113	728.25
1588.251803	733.25
1588.76144	736.25
1589.271022	733.25
1589.78055	731.5
1590.290024	735.5
1590.799444	734.5
1591.30881	729.25
1591.818121	737.0
1592.327379	734.25
