1042.414189	706.25
1042.980685	701.0
1043.547124	700.75
1044.113505	694.0
1044.679828	697.75
1045.246093	694.25
1045.8123	694.0
1046.378449	689.75
1046.94454	688.75
1047.510573	688.5
1048.076548	688.5
1048.642465	687.0
1049.208325	687.25
1049.774126	685.75
1050.339869	686.75
1050.905555	681.0
1051.471183	683.25
1052.036752	680.75
1052.602264	681.0
1053.167718	681.0
1053.733114	679.5
1054.298452	679.25
1054.863733	678.75
1055.428955	681.25
1055.994119	677.75
1056.559226	680.25
1057.124275	678.0
1057.689266	678.25
1058.254199	678.5
1058.819074	677.75
1059.383891	675.5
1059.94865	676.75
1060.513352	672.25
1061.077996	674.5
1061.642582	677.0
1062.20711	676.0
1062.77158	677.75
1063.335992	672.0
1063.900347	676.75
1064.464643	675.5
1065.028882	672.5
1065.593063	674.0
1066.157187	676.25
1066.721252	673.25
1067.28526	675.0
1067.84921	675.25
1068.413102	675.5
1068.976936	674.0
1069.540713	675.5
1070.104431	681.75
1070.668092	673.25
1071.231696	674.0
1071.795241	673.0
1072.358729	671.0
1072.922159	673.0
1073.485531	669.0
1074.048845	674.75
1074.612102	672.5
1075.175301	675.25
1075.738442	668.75
1076.301525	673.25
1076.864551	673.25
1077.427519	676.5
1077.990429	672.0
1078.553281	671.25
1079.116076	674.0
1079.678813	673.0
1080.241492	671.25
1080.804114	672.5
1081.366678	674.0
1081.929184	669.25
1082.491633	674.25
1083.054024	670.25
1083.616357	674.25
1084.178632	675.0
1084.74085	670.5
1085.30301	672.25
1085.865113	671.5
1086.427158	673.0
1086.989145	674.5
1087.551074	671.5
1088.112946	669.25
1088.67476	674.0
1089.236517	670.0
1089.798216	669.0
1090.359857	672.0
1090.92144	671.0
1091.482966	670.0
1092.044435	677.75
1092.605845	671.75
1093.167199	673.75
1093.728494	670.0
1094.289732	668.5
1094.850912	673.75
1095.412035	674.25
1095.9731	672.5
1096.534107	670.5
1097.095057	678.25
1097.65595	670.5
1098.216784	670.75
1098.777561	670.75
1099.338281	671.5
1099.898943	672.25
1100.459547	670.75
1101.020094	669.5
1101.580584	673.5
1102.141015	671.25
1102.701389	668.25
1103.261706	669.75
1103.821965	671.0
1104.382167	669.25
1104.942311	674.5
1105.502397	671.25
1106.062426	672.75
1106.622398	672.75
1107.182312	672.0
1107.742168	671.75
1108.301967	671.5
1108.861708	670.0
1109.421392	671.25
1109.981019	674.0
1110.540587	669.25
1111.100099	670.75
1111.659553	669.0
1112.218949	670.75
1112.778288	669.5
1113.33757	671.0
1113.896794	672.0
1114.45596	671.75
1115.015069	671.25
1115.574121	671.25
1116.133115	671.0
1116.692052	669.0
1117.250931	672.5
1117.809753	672.75
1118.368517	674.0
1118.927224	669.0
1119.485873	670.25
1120.044465	673.0
1120.603	670.0
1121.161477	668.75
1121.719897	672.25
1122.278259	669.0
1122.836564	671.75
1123.394812	671.25
1123.953002	671.75
1124.511135	672.0
1125.06921	671.0
1125.627228	672.5
1126.185189	669.5
1126.743092	673.25
1127.300938	668.75
1127.858726	668.5
1128.416457	667.75
1128.974131	671.75
1129.531748	670.5
1130.089307	669.5
1130.646808	672.0
1131.204252	671.0
1131.761639	673.25
1132.318969	668.25
1132.876241	672.25
1133.433456	674.25
1133.990614	670.75
1134.547714	669.25
1135.104757	670.25
1135.661743	667.25
1136.218671	669.75
1136.775542	672.25
1137.332356	672.5
1137.889112	670.0
1138.445811	670.5
1139.002453	670.0
1139.559037	670.25
1140.115565	669.0
1140.672035	670.25
1141.228447	673.25
1141.784803	667.25
1142.341101	670.0
1142.897342	671.75
1143.453525	670.25
1144.009651	667.5
1144.565721	670.25
1145.121732	670.5
1145.677687	671.0
1146.233584	669.25
1146.789424	668.75
1147.345207	673.25
1147.900933	671.25
1148.456601	670.25
1149.012212	671.0
1149.567766	672.5
1150.123263	674.25
1150.678702	682.0
1151.234085	673.75
1151.78941	672.0
1152.344678	669.0
1152.899888	672.5
1153.455042	669.5
1154.010138	671.0
1154.565177	671.25
1155.120159	669.25
1155.675084	671.75
1156.229951	668.75
1156.784762	670.5
1157.339515	667.75
1157.894211	670.25
1158.44885	668.5
1159.003432	672.0
1159.557956	669.25
1160.112424	670.25
1160.666834	669.5
1161.221187	669.25
1161.775483	669.25
1162.329722	668.5
1162.883904	668.5
1163.438029	669.75
1163.992096	671.0
1164.546107	670.0
1165.10006	670.5
1165.653956	667.5
1166.207795	671.0
1166.761577	670.75
1167.315302	669.0
1167.86897	670.75
1168.422581	669.75
1168.976134	669.25
1169.529631	672.0
1170.08307	668.5
1170.636453	670.75
1171.189778	670.5
1171.743046	671.5
1172.296257	669.75
1172.849412	669.5
1173.402509	669.25
1173.955549	670.75
1174.508532	668.75
1175.061458	672.5
1175.614327	671.25
1176.167138	669.5
1176.719893	670.75
1177.272591	669.25
1177.825232	668.75
1178.377816	668.5
1178.930342	670.5
1179.482812	667.0
1180.035225	671.75
1180.587581	669.25
1181.139879	670.25
1181.692121	670.25
1182.244306	672.75
1182.796434	675.0
1183.348504	669.75
1183.900518	668.75
1184.452475	667.5
1185.004375	670.75
1185.556218	669.5
1186.108004	671.75
1186.659733	666.75
1187.211405	670.5
1187.76302	667.0
1188.314578	670.0
1188.866079	671.0
1189.417523	674.75
1189.96891	670.75
1190.520241	669.25
1191.071514	668.75
1191.622731	671.5
1192.17389	670.25
1192.724993	668.25
1193.276039	690.0
1193.827027	670.25
1194.377959	670.75
1194.928834	670.75
1195.479653	669.5
1196.030414	672.75
1196.581118	668.75
1197.131766	671.75
1197.682356	669.25
1198.23289	667.75
1198.783367	672.0
1199.333786	669.25
1199.88415	671.0
1200.434456	669.5
1200.984705	670.75
1201.534898	672.0
1202.085033	673.5
1202.635112	670.0
1203.185134	669.5
1203.735099	672.0
1204.285007	671.5
1204.834859	671.0
1205.384653	668.25
1205.934391	671.0
1206.484072	668.25
1207.033696	668.75
1207.583263	670.25
1208.132774	669.25
1208.682228	671.75
1209.231624	669.75
1209.780965	670.0
1210.330248	672.5
1210.879474	672.75
1211.428644	671.75
1211.977757	670.75
1212.526813	669.25
1213.075813	673.25
1213.624755	672.75
1214.173641	669.75
1214.72247	669.75
1215.271242	668.75
1215.819958	669.5
1216.368617	671.5
1216.917219	670.5
1217.465764	671.5
1218.014253	667.25
1218.562685	668.75
1219.11106	671.75
1219.659378	669.5
1220.20764	671.5
1220.755845	670.0
1221.303993	667.75
1221.852085	672.25
1222.400119	671.0
1222.948097	666.5
1223.496019	673.0
1224.043883	673.0
1224.591691	672.0
1225.139443	668.5
1225.687137	674.0
1226.234775	668.0
1226.782357	671.5
1227.329881	668.0
1227.877349	674.75
1228.42476	669.25
1228.972115	671.75
1229.519413	672.0
1230.066654	671.25
1230.613839	669.25
1231.160967	673.5
1231.708038	673.75
1232.255053	671.25
1232.802011	673.25
1233.348912	667.5
1233.895757	671.5
1234.442545	673.0
1234.989277	673.25
1235.535951	672.25
1236.08257	673.0
1236.629131	673.75
1237.175636	672.5
1237.722085	671.25
1238.268477	672.75
1238.814812	671.0
1239.361091	668.75
1239.907313	670.75
1240.453478	668.25
1240.999587	667.25
1241.54564	672.0
1242.091636	672.5
1242.637575	672.0
1243.183457	673.0
1243.729284	670.0
1244.275053	676.0
1244.820766	670.5
1245.366423	668.5
1245.912022	670.25
1246.457566	672.75
1247.003053	673.25
1247.548483	670.5
1248.093857	670.5
1248.639174	670.0
1249.184435	673.0
1249.729639	668.25
1250.274787	669.5
1250.819878	671.75
1251.364912	671.25
1251.909891	674.75
1252.454812	672.0
1252.999677	674.0
1253.544486	670.25
1254.089238	673.5
1254.633934	672.5
1255.178573	673.25
1255.723156	674.75
1256.267682	668.5
1256.812152	672.25
1257.356565	673.75
1257.900922	672.0
1258.445223	674.5
1258.989467	674.25
1259.533654	674.75
1260.077785	685.0
1260.62186	673.5
1261.165878	677.25
1261.70984	673.25
1262.253745	678.0
1262.797594	676.25
1263.341386	677.5
1263.885123	683.75
1264.428802	685.25
1264.972425	682.5
1265.515992	681.0
1266.059503	679.25
1266.602957	676.25
1267.146354	673.5
1267.689696	674.75
1268.23298	673.0
1268.776209	672.5
1269.319381	674.25
1269.862497	671.75
1270.405556	672.75
1270.948559	672.0
1271.491506	673.5
1272.034396	673.5
1272.57723	673.5
1273.120007	674.75
1273.662728	674.0
1274.205393	672.25
1274.748002	673.0
1275.290554	671.5
1275.83305	675.25
1276.375489	675.0
1276.917872	675.5
1277.460199	672.0
1278.00247	672.5
1278.544684	672.0
1279.086842	673.75
1279.628943	678.5
1280.170989	679.75
1280.712978	680.75
1281.25491	687.25
1281.796787	686.75
1282.338607	699.0
1282.880371	724.5
1283.422078	766.0
1283.963729	816.75
1284.505324	846.5
1285.046863	811.75
1285.588345	759.0
1286.129772	708.25
1286.671142	687.25
1287.212455	680.25
1287.753713	679.25
1288.294914	676.25
1288.836059	676.5
1289.377147	676.0
1289.91818	676.0
1290.459156	672.0
1291.000076	675.5
1291.54094	674.5
1292.081747	673.0
1292.622499	673.0
1293.163194	673.5
1293.703833	672.5
1294.244415	673.5
1294.784942	674.25
1295.325412	670.0
1295.865826	670.5
1296.406184	676.5
1296.946486	672.5
1297.486731	674.25
1298.026921	671.5
1298.567054	672.25
1299.107131	673.75
1299.647152	673.75
1300.187116	673.5
1300.727025	670.0
1301.266877	667.75
1301.806673	672.25
1302.346413	672.25
1302.886097	674.25
1303.425725	672.75
1303.965297	673.5
1304.504812	670.75
1305.044272	673.0
1305.583675	672.75
1306.123022	670.5
1306.662313	671.5
1307.201548	671.5
1307.740727	670.25
1308.279849	673.25
1308.818916	672.5
1309.357926	674.25
1309.896881	671.25
1310.435779	671.75
1310.974621	670.5
1311.513407	671.5
1312.052137	673.75
1312.590811	673.25
1313.129429	673.75
1313.667991	673.0
1314.206497	670.5
1314.744946	669.0
1315.28334	673.5
1315.821678	670.0
1316.359959	671.75
1316.898184	670.0
1317.436354	672.0
1317.974467	671.5
1318.512525	670.5
1319.050526	670.0
1319.588471	666.75
1320.12636	672.0
1320.664194	673.0
1321.201971	675.25
1321.739692	672.25
1322.277357	675.0
1322.814967	672.25
1323.35252	672.25
1323.890017	677.0
1324.427458	670.5
1324.964843	672.25
1325.502173	672.0
1326.039446	669.75
1326.576663	670.25
1327.113824	668.5
1327.65093	671.75
1328.187979	672.0
1328.724972	673.5
1329.26191	671.5
1329.798791	671.75
1330.335617	668.25
1330.872386	671.0
1331.4091	670.25
1331.945758	673.5
1332.48236	673.5
1333.018905	672.0
1333.555395	672.75
1334.091829	673.25
1334.628207	673.75
1335.164529	674.75
1335.700796	675.25
1336.237006	672.0
1336.77316	669.25
1337.309259	673.5
1337.845301	672.0
1338.381288	668.75
1338.917219	675.25
1339.453094	668.5
1339.988913	670.75
1340.524676	671.75
1341.060383	672.0
1341.596034	670.0
1342.13163	674.5
1342.66717	674.75
1343.202653	671.75
1343.738081	673.75
1344.273453	673.5
1344.80877	670.75
1345.34403	673.0
1345.879235	670.25
1346.414383	670.75
1346.949476	669.5
1347.484513	672.25
1348.019494	668.0
1348.55442	673.5
1349.089289	673.5
1349.624103	671.5
1350.158861	672.25
1350.693563	671.25
1351.228209	672.5
1351.7628	670.75
1352.297334	670.0
1352.831813	672.5
1353.366236	668.5
1353.900604	674.75
1354.434915	671.75
1354.969171	675.25
1355.503371	673.0
1356.037515	670.75
1356.571604	673.75
1357.105636	669.75
1357.639613	672.5
1358.173535	670.0
1358.7074	670.75
1359.24121	668.5
1359.774964	672.25
1360.308662	670.5
1360.842304	671.5
1361.375891	671.25
1361.909422	670.5
1362.442897	671.25
1362.976317	671.75
1363.50968	672.0
1364.042989	671.75
1364.576241	673.75
1365.109438	676.0
1365.642579	673.5
1366.175664	672.0
1366.708693	673.75
1367.241667	671.25
1367.774585	672.25
1368.307448	673.0
1368.840255	677.0
1369.373006	675.75
1369.905701	676.25
1370.438341	679.0
1370.970925	679.0
1371.503454	673.75
1372.035926	672.5
1372.568344	674.25
1373.100705	670.25
1373.633011	672.25
1374.165261	671.25
1374.697456	671.75
1375.229595	672.5
1375.761678	673.25
1376.293705	673.75
1376.825677	673.75
1377.357594	673.0
1377.889455	675.0
1378.42126	674.5
1378.953009	673.75
1379.484703	674.25
1380.016342	676.75
1380.547924	674.25
1381.079452	676.5
1381.610923	676.75
1382.142339	674.5
1382.673699	675.0
1383.205004	676.0
1383.736253	677.5
1384.267447	680.75
1384.798585	685.25
1385.329668	684.75
1385.860695	695.5
1386.391666	708.5
1386.922582	745.5
1387.453442	814.0
1387.984247	982.0
1388.514996	1026.5
1389.04569	888.75
1389.576328	756.25
1390.10691	702.0
1390.637437	689.75
1391.167909	684.0
1391.698325	684.25
1392.228685	679.25
1392.75899	678.75
1393.28924	677.0
1393.819434	673.75
1394.349572	672.75
1394.879655	674.25
1395.409683	673.75
1395.939655	678.75
1396.469571	674.25
1396.999432	674.25
1397.529237	674.75
1398.058987	674.0
1398.588682	676.5
1399.118321	675.25
1399.647905	672.5
1400.177433	673.75
1400.706906	672.75
1401.236323	675.25
1401.765685	674.0
1402.294991	673.5
1402.824242	673.5
1403.353437	674.75
1403.882577	673.75
1404.411662	674.75
1404.940691	675.5
1405.469665	675.75
1405.998583	677.25
1406.527446	676.0
1407.056253	675.0
1407.585005	678.5
1408.113702	680.0
1408.642343	684.5
1409.170929	687.5
1409.69946	690.25
1410.227935	687.25
1410.756354	688.5
1411.284719	678.75
1411.813028	674.75
1412.341281	672.75
1412.869479	676.0
1413.397622	669.75
1413.92571	673.5
1414.453742	674.5
1414.981718	671.75
1415.50964	686.75
1416.037506	673.25
1416.565316	672.0
1417.093072	670.5
1417.620772	673.25
1418.148416	670.25
1418.676005	674.5
1419.203539	671.5
1419.731018	672.25
1420.258441	674.0
1420.785809	671.0
1421.313122	671.5
1421.840379	670.25
1422.367582	671.5
1422.894728	673.0
1423.42182	671.0
1423.948856	671.25
1424.475837	672.75
1425.002762	674.5
1425.529633	669.25
1426.056448	673.75
1426.583207	675.75
1427.109912	672.75
1427.636561	668.75
1428.163155	672.25
1428.689694	672.0
1429.216177	672.75
1429.742605	671.25
1430.268978	670.0
1430.795296	673.0
1431.321558	673.75
1431.847765	673.5
1432.373917	672.25
1432.900014	672.25
1433.426056	669.25
1433.952042	673.5
1434.477973	671.5
1435.003849	670.75
1435.529669	672.25
1436.055435	672.0
1436.581145	672.0
1437.1068	669.5
1437.632399	674.0
1438.157944	668.25
1438.683433	671.5
1439.208868	671.25
1439.734247	670.75
1440.25957	671.0
1440.784839	672.75
1441.310053	670.5
1441.835211	670.25
1442.360314	671.25
1442.885362	672.25
1443.410355	672.5
1443.935292	672.0
1444.460175	671.75
1444.985002	669.5
1445.509774	670.5
1446.034491	669.5
1446.559153	671.0
1447.08376	671.0
1447.608312	672.25
1448.132808	672.5
1448.65725	667.0
1449.181636	673.25
1449.705967	673.0
1450.230243	671.25
1450.754464	668.0
1451.27863	668.75
1451.802741	672.25
1452.326797	670.25
1452.850797	670.75
1453.374743	669.5
1453.898633	667.75
1454.422468	668.25
1454.946249	669.25
1455.469974	672.0
1455.993644	670.0
1456.517259	670.0
1457.040819	671.5
1457.564324	667.25
1458.087773	672.25
1458.611168	668.75
1459.134508	671.0
1459.657793	672.0
1460.181022	670.0
1460.704197	670.75
1461.227316	673.0
1461.750381	671.75
1462.27339	672.5
1462.796345	679.75
1463.842089	690.5
1464.364878	670.75
1464.887613	670.5
1465.410292	671.5
1465.932916	665.25
1466.455486	671.25
1466.978	671.5
1467.50046	669.5
1468.022864	672.25
1468.545214	672.0
1469.067508	672.25
1469.589748	670.0
1470.111932	674.75
1470.634062	670.25
1471.156136	672.75
1471.678156	671.5
1472.20012	670.25
1472.72203	669.5
1473.243885	669.75
1473.765685	671.25
1474.28743	668.0
1474.80912	668.5
1475.330755	671.0
1475.852335	671.0
1476.37386	670.25
1476.89533	670.75
1477.416745	670.25
1477.938106	667.75
1478.459411	675.75
1478.980662	668.75
1479.501857	667.75
1480.022998	669.75
1480.544084	668.25
1481.065115	668.25
1481.586091	671.5
1482.107012	670.5
1482.627878	670.25
1483.14869	670.25
1483.669446	669.5
1484.190148	667.75
1484.710794	670.75
1485.231386	670.75
1485.751923	675.75
1486.272406	668.0
1486.792833	671.5
1487.313205	669.5
1487.833523	671.5
1488.353786	672.25
1488.873994	669.5
1489.394147	669.5
1489.914245	667.75
1490.434288	668.5
1490.954277	671.5
1491.474211	671.5
1491.99409	670.75
1492.513914	670.25
1493.033683	670.25
1493.553398	666.75
1494.073057	672.0
1494.592662	669.25
1495.112212	670.5
1495.631708	670.75
1496.151148	670.25
1496.670534	671.5
1497.189865	668.5
1497.709141	670.5
1498.228362	671.75
1498.747529	668.75
1499.266641	670.0
1499.785698	678.75
1500.3047	671.25
1500.823648	672.0
1501.34254	671.75
1501.861379	667.5
1502.380162	668.5
1502.89889	667.75
1503.417564	670.75
1503.936183	673.5
1504.454748	670.75
1504.973257	667.5
1505.491712	667.0
1506.010112	671.0
1506.528458	674.75
1507.046748	670.25
1507.564984	667.5
1508.083166	668.25
1508.601292	665.75
1509.119364	670.5
1509.637381	668.25
1510.155344	668.25
1510.673252	678.0
1511.191105	666.75
1511.708903	665.75
1512.226647	668.0
1512.744336	671.25
1513.261971	666.5
1513.77955	668.25
1514.297076	670.5
1514.814546	667.0
1515.331962	669.75
1515.849323	670.0
1516.366629	670.0
1516.883881	669.25
1517.401078	673.75
1517.918221	668.75
1518.435309	667.0
1518.952342	666.75
1519.469321	667.75
1519.986245	667.0
1520.503114	672.25
1521.019929	669.5
1521.536689	670.75
1522.053395	670.5
1522.570046	670.0
1523.086642	670.25
1523.603184	669.75
1524.119671	671.0
1524.636103	671.5
1525.152481	671.5
1525.668805	675.25
1526.185073	697.0
1526.701288	686.75
1527.217447	676.75
1527.733552	667.0
1528.249603	672.5
1528.765599	669.75
1529.28154	669.25
1529.797427	672.25
1530.313259	669.5
1530.829037	673.25
1531.34476	673.0
1531.860429	672.0
1532.376043	673.0
1532.891602	673.25
1533.407107	673.25
1533.922558	672.75
1534.437954	669.75
1534.953295	670.75
1535.468582	670.25
1535.983815	669.75
1536.498993	670.75
1537.014116	671.25
1537.529185	672.25
1538.044199	671.75
1538.559159	673.75
1539.074064	671.0
1539.588915	671.25
1540.103712	669.0
1540.618454	670.0
1541.133141	674.0
1541.647774	671.5
1542.162353	670.75
1542.676877	670.25
1543.191346	670.75
1543.705761	673.5
1544.220122	668.75
1544.734428	671.75
1545.24868	669.25
1545.762877	671.0
1546.27702	672.0
1546.791109	668.25
1547.305143	670.75
1547.819122	670.5
1548.333047	671.5
1548.846918	673.75
1549.360734	673.5
1549.874496	670.0
1550.388204	671.75
1550.901857	674.75
1551.415455	671.0
1551.929	671.5
1552.442489	671.75
1552.955925	668.0
1553.469306	669.25
1553.982632	674.0
1554.495905	672.0
1555.009123	670.5
1555.522286	669.75
1556.035395	672.75
1556.54845	670.0
1557.06145	671.5
1557.574396	673.75
1558.087288	671.75
1558.600125	670.25
1559.112908	669.25
1559.625637	669.5
1560.138311	670.5
1560.650931	672.0
1561.163497	673.5
1561.676008	670.25
1562.188465	673.25
1562.700867	672.75
1563.213216	675.5
1563.725509	677.5
1564.237749	674.5
1564.749934	677.75
1565.262065	670.75
1565.774142	671.75
1566.286164	675.75
1566.798132	676.25
1567.310046	673.0
1567.821906	677.0
1568.333711	672.75
1568.845462	674.25
1569.357158	674.25
1569.868801	674.0
1570.380389	673.25
1570.891922	677.0
1571.403402	672.5
1571.914827	672.75
1572.426198	675.75
1572.937515	673.0
1573.448777	672.0
1573.959985	667.5
1574.471139	671.0
1574.982239	669.75
1575.493285	671.0
1576.004276	670.5
1576.515213	670.0
1577.026096	670.5
1577.536924	671.25
1578.047698	669.75
1578.558419	672.5
1579.069084	669.75
1579.579696	672.75
1580.090254	669.25
1580.600757	673.5
1581.111206	668.0
1581.621601	673.25
1582.131941	666.5
1582.642228	672.5
1583.15246	669.25
1583.662638	668.5
1584.172762	671.25
1584.682832	671.0
1585.192847	670.25
1585.702809	671.25
1586.212716	671.0
1586.722569	669.0
1587.232368	668.75
1587.742113	669.0
1588.251803	669.75
1588.76144	672.5
1589.271022	670.25
1589.78055	672.75
1590.290024	673.5
1590.799444	672.0
1591.30881	672.5
1591.818121	670.5
1592.327379	670.25
