1042.980685	738.5
1043.547124	743.5
1044.113505	741.0
1044.679828	737.25
1045.246093	741.0
1045.8123	734.5
1046.378449	735.5
1046.94454	732.5
1047.510573	731.75
1048.076548	728.25
1048.642465	729.75
1049.208325	726.75
1049.774126	726.5
1050.339869	724.75
1050.905555	726.75
1051.471183	719.75
1052.036752	719.25
1052.602264	721.0
1053.167718	720.25
1053.733114	721.25
1054.298452	720.5
1054.863733	721.25
1055.428955	720.75
1055.994119	718.0
1056.559226	713.75
1057.124275	714.25
1057.689266	719.75
1058.254199	717.0
1058.819074	715.0
1059.383891	712.0
1059.94865	711.75
1060.513352	713.0
1061.077996	715.75
1061.642582	710.75
1062.20711	713.75
1062.77158	708.5
1063.335992	712.75
1063.900347	711.0
1064.464643	714.0
1065.028882	709.25
1065.593063	706.0
1066.157187	710.0
1066.721252	711.5
1067.28526	710.5
1067.84921	710.25
1068.413102	710.0
1068.976936	710.25
1069.540713	708.75
1070.104431	716.0
1070.668092	709.75
1071.231696	709.0
1071.795241	708.5
1072.358729	706.5
1072.922159	704.75
1073.485531	708.25
1074.048845	704.5
1074.612102	706.25
1075.175301	710.25
1075.738442	708.75
1076.301525	707.75
1076.864551	712.0
1077.427519	708.0
1077.990429	707.0
1078.553281	707.0
1079.116076	704.5
1079.678813	707.0
1080.241492	709.0
1080.804114	709.0
1081.366678	707.0
1081.929184	704.75
1082.491633	708.75
1083.054024	707.75
1083.616357	703.0
1084.178632	707.0
1084.74085	708.5
1085.30301	704.75
1085.865113	706.5
1086.427158	707.5
1086.989145	710.0
1087.551074	707.75
1088.112946	709.0
1088.67476	706.5
1089.236517	707.25
1089.798216	704.75
1090.359857	705.0
1090.92144	705.75
1091.482966	704.5
1092.044435	708.75
1092.605845	704.75
1093.167199	710.25
1093.728494	706.75
1094.289732	704.75
1094.850912	702.0
1095.412035	709.25
1095.9731	705.0
1096.534107	702.5
1097.095057	713.25
1097.65595	705.0
1098.216784	701.75
1098.777561	708.0
1099.338281	704.0
1099.898943	707.5
1100.459547	707.25
1101.020094	707.25
1101.580584	703.5
1102.141015	707.25
1102.701389	706.0
1103.261706	706.5
1103.821965	708.25
1104.382167	703.5
1104.942311	706.75
1105.502397	707.0
1106.062426	706.5
1106.622398	705.25
1107.182312	705.75
1107.742168	706.5
1108.301967	704.75
1108.861708	706.75
1109.421392	705.0
1109.981019	707.0
1110.540587	706.75
1111.100099	709.0
1111.659553	707.5
1112.218949	705.0
1112.778288	706.75
1113.33757	705.0
1113.896794	704.75
1114.45596	705.25
1115.015069	703.75
1115.574121	707.0
1116.133115	713.25
1116.692052	707.5
1117.250931	709.75
1117.809753	706.75
1118.368517	706.75
1118.927224	710.5
1119.485873	705.75
1120.044465	711.75
1120.603	712.0
1121.161477	709.5
1121.719897	712.5
1122.278259	711.5
1122.836564	708.5
1123.394812	711.5
1123.953002	709.75
1124.511135	713.75
1125.06921	718.75
1125.627228	716.75
1126.185189	727.0
1126.743092	732.0
1127.300938	746.5
1127.858726	755.75
1128.416457	768.0
1128.974131	780.0
1129.531748	789.75
1130.089307	788.5
1130.646808	781.0
1131.204252	759.5
1131.761639	745.25
1132.318969	731.5
1132.876241	734.0
1133.433456	728.5
1133.990614	718.25
1134.547714	715.5
1135.104757	715.75
1135.661743	709.0
1136.218671	706.5
1136.775542	706.75
1137.332356	713.25
1137.889112	713.75
1138.445811	710.5
1139.002453	705.5
1139.559037	709.0
1140.115565	707.5
1140.672035	704.75
1141.228447	707.0
1141.784803	708.75
1142.341101	705.75
1142.897342	706.75
1143.453525	704.75
1144.009651	710.25
1144.565721	705.0
1145.121732	708.25
1145.677687	705.75
1146.233584	709.0
1146.789424	703.0
1147.345207	706.5
1147.900933	709.25
1148.456601	703.75
1149.012212	703.75
1149.567766	707.75
1150.123263	709.25
1150.678702	705.0
1151.234085	705.75
1151.78941	706.75
1152.344678	704.25
1152.899888	705.25
1153.455042	702.5
1154.010138	707.0
1154.565177	705.75
1155.120159	715.5
1155.675084	709.0
1156.229951	708.25
1156.784762	705.5
1157.339515	707.0
1157.894211	711.25
1158.44885	709.75
1159.003432	713.5
1159.557956	712.75
1160.112424	721.0
1160.666834	712.75
1161.221187	712.75
1161.775483	716.25
1162.329722	712.0
1162.883904	714.0
1163.438029	712.0
1163.992096	708.0
1164.546107	702.75
1165.10006	700.5
1165.653956	706.75
1166.207795	705.75
1166.761577	707.0
1167.315302	706.25
1167.86897	707.25
1168.422581	703.25
1168.976134	710.0
1169.529631	702.5
1170.08307	703.0
1170.636453	705.75
1171.189778	707.75
1171.743046	706.75
1172.296257	704.0
1172.849412	702.5
1173.402509	704.5
1173.955549	702.5
1174.508532	706.0
1175.061458	699.75
1175.614327	701.25
1176.167138	702.5
1176.719893	704.25
1177.272591	704.0
1177.825232	703.5
1178.377816	701.0
1178.930342	706.0
1179.482812	704.75
1180.035225	700.75
1180.587581	703.75
1181.139879	706.25
1181.692121	703.5
1182.244306	706.5
1182.796434	704.0
1183.348504	699.75
1183.900518	703.0
1184.452475	701.75
1185.004375	705.5
1185.556218	702.25
1186.108004	701.0
1186.659733	703.0
1187.211405	703.25
1187.76302	700.0
1188.314578	701.25
1188.866079	705.0
1189.417523	702.0
1189.96891	700.0
1190.520241	700.25
1191.071514	704.25
1191.622731	707.0
1192.17389	701.0
1192.724993	700.75
1193.276039	724.0
1193.827027	701.5
1194.377959	700.75
1194.928834	701.5
1195.479653	702.0
1196.030414	704.75
1196.581118	701.75
1197.131766	703.75
1197.682356	701.25
1198.23289	705.5
1198.783367	703.25
1199.333786	703.75
1199.88415	705.75
1200.434456	704.25
1200.984705	706.5
1201.534898	700.0
1202.085033	708.5
1202.635112	704.0
1203.185134	702.75
1203.735099	700.5
1204.285007	706.75
1204.834859	708.25
1205.384653	708.0
1205.934391	707.25
1206.484072	703.5
1207.033696	701.5
1207.583263	705.0
1208.132774	704.25
1208.682228	704.0
1209.231624	699.25
1209.780965	706.0
1210.330248	703.75
1210.879474	706.25
1211.428644	706.5
1211.977757	708.75
1212.526813	703.25
1213.075813	702.5
1213.624755	703.0
1214.173641	703.75
1214.72247	703.5
1215.271242	705.5
1215.819958	701.0
1216.368617	704.5
1216.917219	702.75
1217.465764	708.0
1218.014253	705.75
1218.562685	704.0
1219.11106	704.5
1219.659378	709.75
1220.20764	707.5
1220.755845	706.25
1221.303993	703.75
1221.852085	703.25
1222.400119	702.75
1222.948097	702.25
1223.496019	705.75
1224.043883	705.5
1224.591691	704.5
1225.139443	703.0
1225.687137	701.0
1226.234775	702.5
1226.782357	703.25
1227.329881	706.5
1227.877349	702.75
1228.42476	701.75
1228.972115	707.0
1229.519413	701.25
1230.066654	704.5
1230.613839	711.5
1231.160967	705.5
1231.708038	707.75
1232.255053	705.25
1232.802011	704.75
1233.348912	707.75
1233.895757	702.25
1234.442545	702.25
1234.989277	704.25
1235.535951	705.5
1236.08257	702.75
1236.629131	706.75
1237.175636	706.5
1237.722085	707.25
1238.268477	709.0
1238.814812	700.0
1239.361091	708.25
1239.907313	704.5
1240.453478	708.75
1240.999587	701.75
1241.54564	704.5
1242.091636	703.5
1242.637575	706.5
1243.183457	703.25
1243.729284	703.0
1244.275053	702.0
1244.820766	703.5
1245.366423	701.0
1245.912022	700.5
1246.457566	709.75
1247.003053	705.5
1247.548483	702.0
1248.093857	707.0
1248.639174	706.5
1249.184435	706.75
1249.729639	708.5
1250.274787	701.5
1250.819878	704.5
1251.364912	704.75
1251.909891	709.0
1252.454812	702.75
1252.999677	704.0
1253.544486	705.75
1254.089238	707.25
1254.633934	703.25
1255.178573	705.0
1255.723156	705.25
1256.267682	704.5
1256.812152	701.25
1257.356565	705.0
1257.900922	709.0
1258.445223	699.25
1258.989467	707.75
1259.533654	704.75
1260.077785	724.75
1260.62186	709.25
1261.165878	705.0
1261.70984	704.25
1262.253745	700.75
1262.797594	705.0
1263.341386	713.0
1263.885123	708.5
1264.428802	718.0
1264.972425	726.5
1265.515992	762.0
1266.059503	776.75
1266.602957	738.5
1267.146354	715.5
1267.689696	710.25
1268.23298	706.25
1268.776209	702.25
1269.319381	700.75
1269.862497	704.0
1270.405556	702.25
1270.948559	698.75
1271.491506	704.0
1272.034396	698.75
1272.57723	707.25
1273.120007	703.0
1273.662728	701.0
1274.205393	709.25
1274.748002	701.25
1275.290554	701.25
1275.83305	702.5
1276.375489	703.75
1276.917872	700.75
1277.460199	705.5
1278.00247	700.5
1278.544684	701.5
1279.086842	699.75
1279.628943	703.25
1280.170989	702.0
1280.712978	707.25
1281.25491	709.5
1281.796787	707.75
1282.338607	710.5
1282.880371	713.0
1283.422078	716.0
1283.963729	727.5
1284.505324	756.5
1285.046863	858.0
1285.588345	1246.25
1286.129772	1796.25
1286.671142	1296.5
1287.212455	856.0
1287.753713	751.0
1288.294914	723.25
1288.836059	719.0
1289.377147	705.0
1289.91818	704.25
1290.459156	704.25
1291.000076	702.75
1291.54094	703.5
1292.081747	702.5
1292.622499	705.5
1293.163194	703.5
1293.703833	702.5
1294.244415	698.0
1294.784942	699.25
1295.325412	703.0
1295.865826	699.0
1296.406184	702.25
1296.946486	700.5
1297.486731	700.75
1298.026921	700.75
1298.567054	695.5
1299.107131	703.0
1299.647152	699.75
1300.187116	700.25
1300.727025	695.75
1301.266877	702.25
1301.806673	700.75
1302.346413	701.0
1302.886097	701.0
1303.425725	704.0
1303.965297	696.5
1304.504812	696.75
1305.044272	704.25
1305.583675	703.25
1306.123022	702.0
1306.662313	702.5
1307.201548	701.0
1307.740727	699.75
1308.279849	703.25
1308.818916	697.75
1309.357926	699.25
1309.896881	701.25
1310.435779	695.75
1310.974621	703.0
1311.513407	698.0
1312.052137	696.5
1312.590811	697.0
1313.129429	699.25
1313.667991	702.75
1314.206497	700.5
1314.744946	702.5
1315.28334	698.0
1315.821678	702.75
1316.359959	702.5
1316.898184	703.75
1317.436354	702.75
1317.974467	700.75
1318.512525	701.75
1319.050526	697.0
1319.588471	698.0
1320.12636	702.0
1320.664194	700.5
1321.201971	700.25
1321.739692	701.75
1322.277357	700.0
1322.814967	699.75
1323.35252	697.75
1323.890017	706.25
1324.427458	696.75
1324.964843	699.25
1325.502173	700.5
1326.039446	700.25
1326.576663	696.25
1327.113824	701.25
1327.65093	699.5
1328.187979	696.5
1328.724972	697.75
1329.26191	700.5
1329.798791	700.5
1330.335617	700.5
1330.872386	702.25
1331.4091	699.5
1331.945758	699.25
1332.48236	700.25
1333.018905	702.25
1333.555395	697.0
1334.091829	698.25
1334.628207	697.0
1335.164529	696.5
1335.700796	702.0
1336.237006	703.25
1336.77316	700.5
1337.309259	699.25
1337.845301	701.5
1338.381288	702.5
1338.917219	697.5
1339.453094	701.75
1339.988913	701.75
1340.524676	700.25
1341.060383	700.75
1341.596034	703.75
1342.13163	698.5
1342.66717	701.0
1343.202653	700.25
1343.738081	702.5
1344.273453	700.0
1344.80877	701.75
1345.34403	698.5
1345.879235	700.0
1346.414383	697.5
1346.949476	698.5
1347.484513	700.5
1348.019494	696.5
1348.55442	699.25
1349.089289	699.0
1349.624103	699.25
1350.158861	704.25
1350.693563	701.5
1351.228209	701.25
1351.7628	702.75
1352.297334	703.0
1352.831813	704.25
1353.366236	700.75
1353.900604	702.5
1354.434915	701.0
1354.969171	703.0
1355.503371	701.25
1356.037515	703.75
1356.571604	702.25
1357.105636	698.25
1357.639613	704.0
1358.173535	704.0
1358.7074	700.5
1359.24121	701.0
1359.774964	699.5
1360.308662	706.25
1360.842304	702.75
1361.375891	699.25
1361.909422	699.25
1362.442897	698.0
1362.976317	700.0
1363.50968	704.25
1364.042989	698.5
1364.576241	698.75
1365.109438	700.0
1365.642579	700.0
1366.175664	701.5
1366.708693	701.0
1367.241667	705.0
1367.774585	703.5
1368.307448	709.5
1368.840255	702.25
1369.373006	700.75
1369.905701	698.0
1370.438341	711.0
1370.970925	728.75
1371.503454	714.75
1372.035926	702.0
1372.568344	702.0
1373.100705	701.5
1373.633011	701.0
1374.165261	704.0
1374.697456	701.0
1375.229595	705.0
1375.761678	700.5
1376.293705	702.25
1376.825677	703.75
1377.357594	705.0
1377.889455	702.25
1378.42126	701.25
1378.953009	702.75
1379.484703	696.75
1380.016342	707.5
1380.547924	703.75
1381.079452	705.0
1381.610923	706.75
1382.142339	700.25
1382.673699	706.75
1383.205004	703.0
1383.736253	702.75
1384.267447	708.25
1384.798585	706.5
1385.329668	712.0
1385.860695	720.5
1386.391666	718.0
1386.922582	732.25
1387.453442	743.75
1387.984247	786.25
1388.514996	1055.75
1389.04569	2149.25
1389.576328	2440.0
1390.10691	1137.5
1390.637437	795.5
1391.167909	740.75
1391.698325	724.75
1392.228685	714.5
1392.75899	708.0
1393.28924	708.25
1393.819434	708.75
1394.349572	709.5
1394.879655	704.75
1395.409683	703.75
1395.939655	701.75
1396.469571	704.25
1396.999432	705.25
1397.529237	700.0
1398.058987	697.5
1398.588682	705.25
1399.118321	697.25
1399.647905	703.0
1400.177433	703.0
1400.706906	698.5
1401.236323	704.5
1401.765685	700.0
1402.294991	698.75
1402.824242	698.75
1403.353437	703.0
1403.882577	701.0
1404.411662	702.0
1404.940691	701.5
1405.469665	695.5
1405.998583	700.25
1406.527446	702.75
1407.056253	697.5
1407.585005	700.5
1408.113702	706.0
1408.642343	707.5
1409.170929	715.0
1409.69946	738.25
1410.227935	797.25
1410.756354	851.0
1411.284719	776.75
1411.813028	721.0
1412.341281	709.75
1412.869479	702.0
1413.397622	704.0
1413.92571	701.0
1414.453742	700.75
1414.981718	701.0
1415.50964	715.5
1416.037506	697.5
1416.565316	699.75
1417.093072	701.0
1417.620772	696.25
1418.148416	699.75
1418.676005	699.25
1419.203539	697.25
1419.731018	699.5
1420.258441	695.0
1420.785809	697.75
1421.313122	702.75
1421.840379	703.5
1422.367582	696.25
1422.894728	703.75
1423.42182	698.75
1423.948856	701.75
1424.475837	701.0
1425.002762	700.0
1425.529633	703.75
1426.056448	699.0
1426.583207	704.5
1427.109912	706.75
1427.636561	702.25
1428.163155	697.5
1428.689694	696.75
1429.216177	695.75
1429.742605	699.0
1430.268978	697.75
1430.795296	697.0
1431.321558	699.75
1431.847765	695.25
1432.373917	696.5
1432.900014	700.5
1433.426056	697.5
1433.952042	695.0
1434.477973	699.0
1435.003849	695.25
1435.529669	697.75
1436.055435	696.0
1436.581145	700.5
1437.1068	696.75
1437.632399	694.75
1438.157944	697.25
1438.683433	700.0
1439.208868	695.25
1439.734247	698.0
1440.25957	697.75
1440.784839	698.0
1441.310053	694.0
1441.835211	695.0
1442.360314	697.25
1442.885362	694.25
1443.410355	696.25
1443.935292	701.5
1444.460175	694.75
1444.985002	695.25
1445.509774	692.0
1446.034491	696.0
1446.559153	696.25
1447.08376	694.5
1447.608312	690.75
1448.132808	693.25
1448.65725	692.0
1449.181636	694.0
1449.705967	701.25
1450.230243	698.75
1450.754464	695.5
1451.27863	695.5
1451.802741	701.0
1452.326797	694.25
1452.850797	697.25
1453.374743	690.0
1453.898633	699.25
1454.422468	693.0
1454.946249	695.0
1455.469974	695.0
1455.993644	693.25
1456.517259	691.5
1457.040819	696.0
1457.564324	700.0
1458.087773	699.0
1458.611168	692.75
1459.134508	694.25
1459.657793	695.0
1460.181022	694.25
1460.704197	698.0
1461.227316	698.0
1461.750381	692.5
1462.27339	699.25
1462.796345	697.0
1463.319244	703.25
1463.842089	697.75
1464.364878	695.25
1464.887613	696.0
1465.410292	692.75
1465.932916	697.25
1466.455486	696.25
1466.978	692.75
1467.50046	694.25
1468.022864	694.25
1468.545214	695.0
1469.067508	695.5
1469.589748	694.0
1470.111932	697.25
1470.634062	695.25
1471.156136	692.75
1471.678156	696.0
1472.20012	693.5
1472.72203	690.5
1473.243885	694.0
1473.765685	695.75
1474.28743	693.75
1474.80912	694.5
1475.330755	691.5
1475.852335	693.75
1476.37386	694.25
1476.89533	696.0
1477.416745	696.25
1477.938106	696.25
1478.459411	692.5
1478.980662	696.75
1479.501857	698.25
1480.022998	696.75
1480.544084	689.75
1481.065115	692.25
1481.586091	694.5
1482.107012	696.5
1482.627878	694.0
1483.14869	698.25
1483.669446	694.75
1484.190148	697.25
1484.710794	698.5
1485.231386	695.25
1485.751923	699.0
1486.272406	694.25
1486.792833	691.5
1487.313205	692.75
1487.833523	694.75
1488.353786	691.75
1488.873994	694.0
1489.394147	690.75
1489.914245	701.0
1490.434288	698.0
1490.954277	692.0
1491.474211	690.75
1491.99409	694.5
1492.513914	694.25
1493.033683	696.0
1493.553398	700.0
1494.073057	695.0
1494.592662	693.25
1495.112212	688.0
1495.631708	695.75
1496.151148	692.5
1496.670534	696.0
1497.189865	691.5
1497.709141	694.25
1498.228362	695.25
1498.747529	694.25
1499.266641	690.5
1499.785698	697.25
1500.3047	692.25
1500.823648	692.25
1501.34254	692.0
1501.861379	695.0
1502.380162	695.25
1502.89889	698.25
1503.417564	697.25
1503.936183	697.25
1504.454748	694.25
1504.973257	694.0
1505.491712	692.75
1506.010112	698.75
1506.528458	693.25
1507.046748	693.5
1507.564984	694.25
1508.083166	693.25
1508.601292	695.0
1509.119364	697.75
1509.637381	690.0
1510.155344	694.0
1510.673252	701.25
1511.191105	695.75
1511.708903	696.75
1512.226647	697.5
1512.744336	695.5
1513.261971	692.5
1513.77955	693.0
1514.297076	696.0
1514.814546	695.75
1515.331962	694.25
1515.849323	697.5
1516.366629	692.25
1516.883881	696.0
1517.401078	694.25
1517.918221	694.75
1518.435309	697.0
1518.952342	695.5
1519.469321	696.75
1519.986245	694.75
1520.503114	692.5
1521.019929	695.0
1521.536689	693.0
1522.053395	692.0
1522.570046	691.25
1523.086642	691.0
1523.603184	691.5
1524.119671	694.75
1524.636103	690.75
1525.152481	696.0
1525.668805	694.0
1526.185073	700.0
1526.701288	698.25
1527.217447	697.25
1527.733552	694.5
1528.249603	695.25
1528.765599	691.75
1529.28154	696.25
1529.797427	697.0
1530.313259	693.5
1530.829037	691.0
1531.34476	697.5
1531.860429	689.75
1532.376043	690.5
1532.891602	691.75
1533.407107	691.75
1533.922558	695.0
1534.437954	694.25
1534.953295	690.75
1535.468582	692.75
1535.983815	692.75
1536.498993	692.0
1537.014116	691.75
1537.529185	692.5
1538.044199	695.0
1538.559159	691.5
1539.074064	692.5
1539.588915	694.5
1540.103712	692.0
1540.618454	694.25
1541.133141	692.25
1541.647774	694.0
1542.162353	693.5
1542.676877	689.5
1543.191346	693.75
1543.705761	697.5
1544.220122	695.75
1544.734428	694.0
1545.24868	692.0
1545.762877	692.5
1546.27702	694.0
1546.791109	690.5
1547.305143	692.5
1547.819122	691.5
1548.333047	691.75
1548.846918	693.5
1549.360734	692.25
1549.874496	693.5
1550.388204	691.25
1550.901857	693.5
1551.415455	698.5
1551.929	697.0
1552.442489	691.75
1552.955925	691.0
1553.469306	691.5
1553.982632	696.25
1554.495905	691.5
1555.009123	695.25
1555.522286	694.5
1556.035395	696.0
1556.54845	694.0
1557.06145	692.25
1557.574396	693.5
1558.087288	690.5
1558.600125	694.75
1559.112908	696.75
1559.625637	693.5
1560.138311	692.25
1560.650931	691.5
1561.163497	690.75
1561.676008	692.0
1562.188465	692.25
1562.700867	695.0
1563.213216	696.75
1563.725509	693.75
1564.237749	692.25
1564.749934	693.25
1565.262065	686.5
1565.774142	690.25
1566.286164	696.0
1566.798132	692.75
1567.310046	695.25
1567.821906	687.75
1568.333711	693.25
1568.845462	689.25
1569.357158	685.5
1569.868801	690.75
1570.380389	697.75
1570.891922	692.5
1571.403402	693.75
1571.914827	689.25
1572.426198	692.5
1572.937515	690.25
1573.448777	691.25
1573.959985	692.75
1574.471139	690.25
1574.982239	692.25
1575.493285	696.5
1576.004276	693.5
1576.515213	694.5
1577.026096	687.25
1577.536924	689.0
1578.047698	695.75
1578.558419	694.25
1579.069084	690.75
1579.579696	687.5
1580.090254	691.5
1580.600757	695.5
1581.111206	693.25
1581.621601	689.25
1582.131941	695.5
1582.642228	691.25
1583.15246	695.75
1583.662638	690.75
1584.172762	693.25
1584.682832	690.5
1585.192847	692.0
1585.702809	691.0
1586.212716	691.75
1586.722569	692.75
1587.232368	694.25
1587.742113	688.75
1588.251803	692.75
1588.76144	693.5
1589.271022	693.25
1589.78055	688.25
1590.290024	690.75
1590.799444	696.75
1591.30881	692.25
1591.818121	690.5
1592.327379	693.0
