1042.414189	773.0
1042.980685	766.25
1043.547124	763.0
1044.113505	769.75
1044.679828	766.0
1045.246093	759.75
1045.8123	761.25
1046.378449	762.0
1046.94454	759.0
1047.510573	758.75
1048.076548	756.5
1048.642465	759.75
1049.208325	761.5
1049.774126	758.0
1050.339869	761.0
1050.905555	747.75
1051.471183	762.0
1052.036752	752.0
1052.602264	752.0
1053.167718	748.0
1053.733114	753.75
1054.298452	750.75
1054.863733	754.75
1055.428955	748.75
1055.994119	752.25
1056.559226	756.75
1057.124275	748.5
1057.689266	747.25
1058.254199	751.0
1058.819074	751.25
1059.383891	750.0
1059.94865	749.5
1060.513352	750.5
1061.077996	748.75
1061.642582	752.5
1062.20711	749.5
1062.77158	750.25
1063.335992	751.0
1063.900347	742.0
1064.464643	746.0
1065.028882	747.75
1065.593063	747.5
1066.157187	746.25
1066.721252	749.5
1067.28526	746.5
1067.84921	747.75
1068.413102	737.5
1068.976936	751.25
1069.540713	755.25
1070.104431	755.75
1070.668092	743.25
1071.231696	753.25
1071.795241	750.0
1072.358729	749.75
1072.922159	747.0
1073.485531	746.75
1074.048845	750.25
1074.612102	745.75
1075.175301	753.5
1075.738442	747.5
1076.301525	742.0
1076.864551	746.75
1077.427519	747.5
1077.990429	745.5
1078.553281	748.0
1079.116076	748.25
1079.678813	749.0
1080.241492	745.0
1080.804114	748.5
1081.366678	746.0
1081.929184	747.5
1082.491633	750.0
1083.054024	746.5
1083.616357	755.25
1084.178632	744.75
1084.74085	751.5
1085.30301	746.75
1085.865113	746.75
1086.427158	746.5
1086.989145	746.0
1087.551074	746.5
1088.112946	749.5
1088.67476	745.75
1089.236517	747.0
1089.798216	744.0
1090.359857	755.0
1090.92144	744.0
1091.482966	752.5
1092.044435	746.0
1092.605845	745.75
1093.167199	750.75
1093.728494	753.0
1094.289732	742.25
1094.850912	740.75
1095.412035	749.25
1095.9731	741.25
1096.534107	750.0
1097.095057	753.75
1097.65595	745.25
1098.216784	749.25
1098.777561	745.0
1099.338281	748.25
1099.898943	744.75
1100.459547	748.0
1101.020094	748.25
1101.580584	747.75
1102.141015	748.5
1102.701389	749.5
1103.261706	747.5
1103.821965	746.5
1104.382167	748.0
1104.942311	746.75
1105.502397	746.5
1106.062426	745.5
1106.622398	750.0
1107.182312	747.5
1107.742168	745.0
1108.301967	747.0
1108.861708	744.75
1109.421392	754.25
1109.981019	750.25
1110.540587	751.75
1111.100099	750.0
1111.659553	746.25
1112.218949	754.0
1112.778288	746.75
1113.33757	750.5
1113.896794	753.0
1114.45596	751.25
1115.015069	749.5
1115.574121	740.5
1116.133115	749.25
1116.692052	744.75
1117.250931	748.25
1117.809753	748.0
1118.368517	753.25
1118.927224	745.25
1119.485873	749.0
1120.044465	746.25
1120.603	753.5
1121.161477	743.5
1121.719897	743.5
1122.278259	747.75
1122.836564	748.0
1123.394812	746.0
1123.953002	745.25
1124.511135	745.5
1125.06921	754.25
1125.627228	750.0
1126.185189	756.25
1126.743092	751.5
1127.300938	751.25
1127.858726	752.25
1128.416457	748.25
1128.974131	748.0
1129.531748	751.75
1130.089307	747.75
1130.646808	754.75
1131.204252	752.25
1131.761639	748.25
1132.318969	748.5
1132.876241	747.75
1133.433456	755.5
1133.990614	757.0
1134.547714	748.75
1135.104757	747.0
1135.661743	754.25
1136.218671	754.0
1136.775542	748.75
1137.332356	750.0
1137.889112	750.0
1138.445811	750.75
1139.002453	755.0
1139.559037	755.0
1140.115565	755.0
1140.672035	752.5
1141.228447	749.75
1141.784803	750.0
1142.341101	754.75
1142.897342	753.25
1143.453525	749.25
1144.009651	756.75
1144.565721	750.0
1145.121732	753.75
1145.677687	753.5
1146.233584	754.0
1146.789424	751.0
1147.345207	752.25
1147.900933	754.25
1148.456601	745.5
1149.012212	745.75
1149.567766	752.25
1150.123263	756.0
1150.678702	756.75
1151.234085	755.5
1151.78941	764.75
1152.344678	756.75
1152.899888	755.5
1153.455042	746.5
1154.010138	756.75
1154.565177	757.0
1155.120159	760.0
1155.675084	750.25
1156.229951	753.75
1156.784762	756.0
1157.339515	754.25
1157.894211	759.5
1158.44885	756.0
1159.003432	757.5
1159.557956	757.25
1160.112424	754.75
1160.666834	757.75
1161.221187	760.5
1161.775483	763.75
1162.329722	755.0
1162.883904	760.5
1163.438029	750.75
1163.992096	758.0
1164.546107	753.0
1165.10006	751.75
1165.653956	765.0
1166.207795	760.75
1166.761577	757.75
1167.315302	758.0
1167.86897	757.75
1168.422581	764.25
1168.976134	760.5
1169.529631	755.0
1170.08307	757.5
1170.636453	755.5
1171.189778	763.5
1171.743046	758.0
1172.296257	755.0
1172.849412	760.0
1173.402509	758.75
1173.955549	754.5
1174.508532	756.25
1175.061458	760.25
1175.614327	766.0
1176.167138	760.75
1176.719893	762.0
1177.272591	763.75
1177.825232	760.5
1178.377816	762.5
1178.930342	762.0
1179.482812	755.25
1180.035225	760.0
1180.587581	763.25
1181.139879	759.75
1181.692121	756.5
1182.244306	756.75
1182.796434	756.5
1183.348504	761.0
1183.900518	760.0
1184.452475	761.5
1185.004375	760.75
1185.556218	760.75
1186.108004	768.5
1186.659733	755.75
1187.211405	754.0
1187.76302	762.5
1188.314578	762.0
1188.866079	758.5
1189.417523	761.0
1189.96891	751.25
1190.520241	758.25
1191.071514	767.75
1191.622731	760.5
1192.17389	760.0
1192.724993	756.75
1193.276039	779.25
1193.827027	761.25
1194.377959	766.75
1194.928834	759.25
1195.479653	761.5
1196.030414	765.5
1196.581118	762.75
1197.131766	766.25
1197.682356	763.5
1198.23289	763.75
1198.783367	764.75
1199.333786	759.25
1199.88415	763.0
1200.434456	762.5
1200.984705	766.25
1201.534898	761.75
1202.085033	761.0
1202.635112	766.0
1203.185134	759.75
1203.735099	764.75
1204.285007	760.0
1204.834859	764.0
1205.384653	755.75
1205.934391	761.5
1206.484072	765.25
1207.033696	759.0
1207.583263	763.0
1208.132774	767.75
1208.682228	763.0
1209.231624	761.5
1209.780965	763.75
1210.330248	761.25
1210.879474	761.5
1211.428644	761.0
1211.977757	764.25
1212.526813	766.5
1213.075813	766.25
1213.624755	767.5
1214.173641	760.25
1214.72247	769.0
1215.271242	761.75
1215.819958	763.25
1216.368617	764.25
1216.917219	762.75
1217.465764	759.0
1218.014253	765.5
1218.562685	766.0
1219.11106	770.0
1219.659378	767.75
1220.20764	768.25
1220.755845	764.75
1221.303993	765.5
1221.852085	762.5
1222.400119	767.75
1222.948097	768.0
1223.496019	764.25
1224.043883	761.25
1224.591691	765.5
1225.139443	762.75
1225.687137	772.75
1226.234775	767.25
1226.782357	768.75
1227.329881	768.0
1227.877349	763.5
1228.42476	762.25
1228.972115	773.5
1229.519413	770.75
1230.066654	761.25
1230.613839	766.0
1231.160967	770.5
1231.708038	770.0
1232.255053	766.75
1232.802011	773.0
1233.348912	768.75
1233.895757	773.5
1234.442545	766.25
1234.989277	769.75
1235.535951	766.5
1236.08257	764.0
1236.629131	770.75
1237.175636	777.75
1237.722085	773.0
1238.268477	767.75
1238.814812	772.75
1239.361091	771.5
1239.907313	767.0
1240.453478	774.75
1240.999587	766.0
1241.54564	769.75
1242.091636	767.75
1242.637575	775.25
1243.183457	773.75
1243.729284	767.75
1244.275053	769.5
1244.820766	773.75
1245.366423	773.75
1245.912022	778.5
1246.457566	773.25
1247.003053	778.25
1247.548483	766.0
1248.093857	772.0
1248.639174	767.0
1249.184435	778.75
1249.729639	768.25
1250.274787	768.25
1250.819878	767.75
1251.364912	774.75
1251.909891	769.25
1252.454812	774.25
1252.999677	769.25
1253.544486	773.75
1254.089238	778.25
1254.633934	765.75
1255.178573	774.25
1255.723156	768.75
1256.267682	774.0
1256.812152	775.75
1257.356565	779.25
1257.900922	775.25
1258.445223	777.75
1258.989467	779.5
1259.533654	775.0
1260.62186	774.25
1261.165878	766.25
1261.70984	779.75
1262.253745	779.0
1262.797594	775.25
1263.341386	781.75
1263.885123	784.5
1264.428802	792.25
1264.972425	787.5
1265.515992	790.0
1266.059503	787.5
1266.602957	778.25
1267.146354	776.0
1267.689696	776.75
1268.23298	787.25
1268.776209	783.5
1269.319381	783.25
1269.862497	776.75
1270.405556	781.5
1270.948559	769.5
1271.491506	775.0
1272.034396	769.75
1272.57723	777.0
1273.120007	774.75
1273.662728	778.5
1274.205393	780.0
1274.748002	776.0
1275.290554	784.5
1275.83305	782.75
1276.375489	779.75
1276.917872	775.25
1277.460199	785.25
1278.00247	776.75
1278.544684	781.0
1279.086842	776.75
1279.628943	779.25
1280.170989	782.0
1280.712978	788.25
1281.25491	789.25
1281.796787	786.5
1282.338607	796.5
1282.880371	802.5
1283.422078	838.25
1283.963729	897.0
1284.505324	991.75
1285.046863	1072.0
1285.588345	1011.5
1286.129772	880.5
1286.671142	817.5
1287.212455	799.25
1287.753713	798.0
1288.294914	786.0
1288.836059	783.5
1289.377147	785.0
1289.91818	782.5
1290.459156	779.0
1291.000076	783.25
1291.54094	779.5
1292.081747	774.75
1292.622499	789.75
1293.163194	778.75
1293.703833	781.25
1294.244415	777.0
1294.784942	784.75
1295.325412	778.75
1295.865826	781.25
1296.406184	775.5
1296.946486	776.75
1297.486731	782.75
1298.026921	785.75
1298.567054	776.5
1299.107131	778.25
1299.647152	776.75
1300.187116	782.0
1300.727025	785.75
1301.266877	786.0
1301.806673	778.75
1302.346413	784.0
1302.886097	783.0
1303.425725	778.25
1303.965297	779.75
1304.504812	782.25
1305.044272	783.25
1305.583675	787.5
1306.123022	780.0
1306.662313	774.5
1307.201548	782.5
1307.740727	779.5
1308.279849	781.75
1308.818916	778.25
1309.357926	777.5
1309.896881	775.75
1310.435779	780.0
1310.974621	785.5
1311.513407	780.0
1312.052137	771.25
1312.590811	781.0
1313.129429	781.25
1313.667991	783.0
1314.206497	781.0
1314.744946	779.25
1315.28334	787.5
1315.821678	782.0
1316.359959	775.5
1316.898184	787.0
1317.436354	787.5
1317.974467	787.0
1318.512525	787.75
1319.050526	789.5
1319.588471	782.25
1320.12636	775.75
1320.664194	787.25
1321.201971	784.0
1321.739692	785.25
1322.277357	787.75
1322.814967	786.5
1323.35252	784.25
1323.890017	793.25
1324.427458	786.0
1324.964843	778.0
1325.502173	787.5
1326.039446	783.75
1326.576663	782.0
1327.113824	779.0
1327.65093	777.75
1328.187979	782.5
1328.724972	785.25
1329.26191	785.25
1329.798791	783.75
1330.335617	785.0
1330.872386	788.25
1331.4091	777.0
1331.945758	782.75
1332.48236	791.25
1333.018905	789.25
1333.555395	781.25
1334.091829	779.75
1334.628207	779.75
1335.164529	783.5
1335.700796	783.25
1336.237006	786.25
1336.77316	785.25
1337.309259	786.0
1337.845301	778.5
1338.381288	785.0
1338.917219	782.25
1339.453094	782.5
1339.988913	783.75
1340.524676	787.25
1341.060383	786.5
1341.596034	787.75
1342.13163	792.0
1342.66717	795.5
1343.202653	783.25
1343.738081	792.25
1344.273453	789.25
1344.80877	791.5
1345.34403	786.5
1345.879235	786.75
1346.414383	789.0
1346.949476	790.0
1347.484513	788.75
1348.019494	791.0
1348.55442	787.5
1349.089289	785.0
1349.624103	786.0
1350.158861	780.75
1350.693563	786.0
1351.228209	791.5
1351.7628	783.75
1352.297334	785.5
1352.831813	793.75
1353.366236	784.75
1353.900604	794.0
1354.434915	790.5
1354.969171	794.5
1355.503371	784.0
1356.037515	784.75
1356.571604	779.25
1357.105636	786.75
1357.639613	792.75
1358.173535	786.25
1358.7074	793.5
1359.24121	778.25
1359.774964	790.5
1360.308662	786.0
1360.842304	790.75
1361.375891	788.25
1361.909422	790.25
1362.442897	785.75
1362.976317	791.0
1363.50968	793.5
1364.042989	794.25
1364.576241	792.75
1365.109438	796.25
1365.642579	795.0
1366.175664	784.25
1366.708693	781.5
1367.241667	795.0
1367.774585	792.5
1368.307448	785.75
1368.840255	790.25
1369.373006	788.75
1369.905701	800.5
1370.438341	796.25
1370.970925	805.25
1371.503454	795.0
1372.035926	784.75
1372.568344	796.0
1373.100705	792.0
1373.633011	793.75
1374.165261	790.0
1374.697456	791.0
1375.229595	784.0
1375.761678	791.75
1376.293705	799.25
1376.825677	800.0
1377.357594	795.0
1377.889455	793.25
1378.42126	787.0
1378.953009	791.75
1379.484703	795.25
1380.016342	792.0
1380.547924	798.0
1381.079452	797.0
1381.610923	791.0
1382.142339	799.0
1382.673699	795.25
1383.205004	795.5
1383.736253	803.25
1384.267447	799.25
1384.798585	796.5
1385.329668	807.5
1385.860695	806.25
1386.391666	817.5
1386.922582	845.25
1387.453442	912.5
1387.984247	1076.25
1388.514996	1349.5
1389.04569	1293.25
1389.576328	992.5
1390.10691	865.0
1390.637437	832.75
1391.167909	818.0
1391.698325	799.5
1392.228685	805.0
1392.75899	804.75
1393.28924	794.0
1393.819434	805.25
1394.349572	798.0
1394.879655	800.25
1395.409683	801.25
1395.939655	791.0
1396.469571	800.25
1396.999432	804.0
1397.529237	792.75
1398.058987	796.25
1398.588682	802.75
1399.118321	791.25
1399.647905	786.25
1400.177433	800.25
1400.706906	803.75
1401.236323	794.0
1401.765685	801.25
1402.294991	784.25
1402.824242	793.75
1403.353437	795.0
1403.882577	796.75
1404.411662	800.0
1404.940691	788.5
1405.469665	798.0
1405.998583	801.0
1406.527446	798.75
1407.056253	801.25
1407.585005	801.25
1408.113702	804.5
1408.642343	812.5
1409.170929	819.0
1409.69946	827.0
1410.227935	833.25
1410.756354	819.75
1411.284719	808.75
1411.813028	798.5
1412.341281	799.0
1412.869479	799.0
1413.397622	801.75
1413.92571	804.25
1414.453742	793.0
1414.981718	803.0
1415.50964	810.75
1416.037506	796.75
1416.565316	796.25
1417.093072	800.75
1417.620772	792.75
1418.148416	801.0
1418.676005	801.75
1419.203539	797.0
1419.731018	802.5
1420.258441	806.5
1420.785809	798.5
1421.313122	803.0
1421.840379	802.75
1422.367582	798.25
1422.894728	797.0
1423.42182	801.0
1423.948856	798.5
1424.475837	805.75
1425.002762	797.25
1425.529633	792.0
1426.056448	795.0
1426.583207	791.25
1427.109912	792.5
1427.636561	795.5
1428.163155	799.0
1428.689694	792.25
1429.216177	802.5
1429.742605	800.25
1430.268978	795.5
1430.795296	801.25
1431.321558	790.75
1431.847765	800.75
1432.373917	792.75
1432.900014	799.5
1433.426056	797.75
1433.952042	801.5
1434.477973	800.0
1435.003849	794.75
1435.529669	799.5
1436.055435	796.5
1436.581145	800.75
1437.1068	803.0
1437.632399	806.75
1438.157944	792.25
1438.683433	803.25
1439.208868	798.5
1439.734247	803.75
1440.25957	803.25
1440.784839	793.0
1441.310053	798.75
1441.835211	803.25
1442.360314	799.5
1442.885362	798.0
1443.410355	793.75
1443.935292	804.25
1444.460175	797.75
1444.985002	799.0
1445.509774	801.5
1446.034491	799.0
1446.559153	798.25
1447.08376	794.25
1447.608312	796.25
1448.132808	801.75
1448.65725	794.75
1449.181636	804.75
1449.705967	793.75
1450.230243	807.25
1450.754464	797.0
1451.27863	804.0
1451.802741	798.0
1452.326797	794.0
1452.850797	802.0
1453.374743	802.25
1453.898633	799.5
1454.422468	798.0
1454.946249	800.0
1455.469974	803.0
1455.993644	802.25
1456.517259	805.0
1457.040819	802.5
1457.564324	799.75
1458.087773	795.5
1458.611168	792.25
1459.134508	808.75
1459.657793	788.25
1460.181022	801.25
1460.704197	795.0
1461.227316	799.5
1461.750381	802.0
1462.27339	798.5
1462.796345	806.25
1463.319244	830.75
1463.842089	820.25
1464.364878	802.75
1464.887613	798.75
1465.410292	798.0
1465.932916	799.0
1466.455486	802.0
1466.978	796.75
1467.50046	802.5
1468.022864	798.75
1468.545214	797.0
1469.067508	802.0
1469.589748	802.25
1470.111932	802.25
1470.634062	802.75
1471.156136	794.75
1471.678156	801.25
1472.20012	800.75
1472.72203	802.5
1473.243885	793.25
1473.765685	800.0
1474.28743	795.25
1474.80912	800.5
1475.330755	798.25
1475.852335	801.5
1476.37386	800.5
1476.89533	803.25
1477.416745	798.75
1477.938106	803.25
1478.459411	804.25
1478.980662	805.25
1479.501857	796.5
1480.022998	798.0
1480.544084	806.75
1481.065115	806.25
1481.586091	793.5
1482.107012	795.75
1482.627878	804.75
1483.14869	797.5
1483.669446	800.25
1484.190148	802.0
1484.710794	799.25
1485.231386	795.25
1485.751923	799.5
1486.272406	798.25
1486.792833	796.25
1487.313205	799.0
1487.833523	798.25
1488.353786	794.5
1488.873994	799.75
1489.394147	800.0
1489.914245	799.25
1490.434288	801.5
1490.954277	796.5
1491.474211	797.25
1491.99409	794.0
1492.513914	798.25
1493.033683	801.75
1493.553398	795.75
1494.073057	805.25
1494.592662	797.5
1495.112212	803.25
1495.631708	796.25
1496.151148	793.5
1496.670534	797.5
1497.189865	792.0
1497.709141	798.25
1498.228362	801.75
1498.747529	796.0
1499.266641	798.75
1499.785698	803.5
1500.3047	805.0
1500.823648	805.25
1501.34254	806.75
1501.861379	797.75
1502.380162	794.25
1502.89889	801.5
1503.417564	800.75
1503.936183	797.25
1504.454748	799.75
1504.973257	801.75
1505.491712	798.5
1506.010112	798.25
1506.528458	801.0
1507.046748	805.75
1507.564984	804.25
1508.083166	805.0
1508.601292	797.5
1509.119364	800.5
1509.637381	805.75
1510.155344	809.0
1510.673252	811.25
1511.191105	792.5
1511.708903	800.75
1512.226647	803.25
1512.744336	804.25
1513.261971	802.25
1513.77955	805.0
1514.297076	801.75
1514.814546	800.25
1515.331962	805.25
1515.849323	804.5
1516.366629	804.0
1516.883881	799.5
1517.401078	810.25
1517.918221	794.0
1518.435309	800.0
1518.952342	801.25
1519.469321	800.5
1519.986245	809.5
1520.503114	796.0
1521.019929	800.0
1521.536689	801.75
1522.053395	803.75
1522.570046	797.25
1523.086642	812.5
1523.603184	802.25
1524.119671	799.25
1524.636103	803.75
1525.152481	810.5
1525.668805	810.75
1526.185073	821.0
1526.701288	825.0
1527.217447	805.0
1527.733552	806.5
1528.249603	806.5
1528.765599	808.75
1529.28154	802.75
1529.797427	806.25
1530.313259	807.0
1530.829037	801.25
1531.34476	806.5
1531.860429	801.25
1532.376043	802.0
1532.891602	812.5
1533.407107	808.75
1533.922558	804.0
1534.437954	806.5
1534.953295	802.75
1535.468582	803.25
1535.983815	794.5
1536.498993	806.75
1537.014116	804.25
1537.529185	808.0
1538.044199	806.75
1538.559159	796.0
1539.074064	806.25
1539.588915	802.5
1540.103712	805.5
1540.618454	806.25
1541.133141	802.5
1541.647774	801.75
1542.162353	801.0
1542.676877	807.0
1543.191346	814.75
1543.705761	810.5
1544.220122	807.25
1544.734428	800.25
1545.24868	800.25
1545.762877	799.75
1546.27702	811.75
1546.791109	802.25
1547.305143	814.5
1547.819122	803.25
1548.333047	808.25
1548.846918	807.25
1549.360734	804.25
1549.874496	806.75
1550.388204	803.5
1550.901857	808.0
1551.415455	810.0
1551.929	805.25
1552.442489	807.25
1552.955925	808.25
1553.469306	803.75
1553.982632	809.75
1554.495905	808.25
1555.009123	810.75
1555.522286	816.0
1556.035395	807.25
1556.54845	815.5
1557.06145	810.75
1557.574396	813.5
1558.087288	815.25
1558.600125	808.0
1559.112908	808.0
1559.625637	812.0
1560.138311	813.75
1560.650931	797.25
1561.163497	815.75
1561.676008	805.25
1562.188465	802.75
1562.700867	801.5
1563.213216	807.5
1563.725509	809.75
1564.237749	805.25
1564.749934	818.5
1565.262065	804.25
1565.774142	814.25
1566.286164	811.25
1566.798132	812.25
1567.310046	813.25
1567.821906	807.75
1568.333711	804.75
1568.845462	803.75
1569.357158	807.75
1569.868801	803.25
1570.380389	805.5
1570.891922	810.75
1571.403402	807.25
1571.914827	816.25
1572.426198	806.75
1572.937515	812.0
1573.448777	813.75
1573.959985	811.0
1574.471139	805.75
1574.982239	806.0
1575.493285	802.25
1576.004276	802.25
1576.515213	812.75
1577.026096	811.25
1577.536924	804.25
1578.047698	807.0
1578.558419	807.0
1579.069084	814.25
1579.579696	811.25
1580.090254	806.0
1580.600757	809.25
1581.111206	808.0
1581.621601	801.5
1582.131941	806.25
1582.642228	815.0
1583.15246	803.25
1583.662638	806.25
1584.172762	807.75
1584.682832	803.75
1585.192847	806.0
1585.702809	802.75
1586.212716	812.5
1586.722569	809.0
1587.232368	804.5
1587.742113	802.0
1588.251803	798.5
1588.76144	815.75
1589.271022	802.25
1589.78055	810.25
1590.290024	811.0
1590.799444	815.25
1591.30881	810.25
1591.818121	807.75
1592.327379	806.25
