1042.414189	704.4000244
1042.980685	701.4000244
1043.547124	699.2000122
1044.113505	697.5999756
1044.679828	696.0
1045.246093	694.2000122
1045.8123	693.2000122
1046.378449	691.5999756
1046.94454	692.2000122
1047.510573	694.0
1048.076548	693.2000122
1048.642465	689.4000244
1049.208325	691.4000244
1049.774126	686.2000122
1050.339869	692.0
1050.905555	685.5999756
1051.471183	685.2000122
1052.036752	684.7999878
1052.602264	686.5999756
1053.167718	691.2000122
1053.733114	686.5999756
1054.298452	685.4000244
1054.863733	685.5999756
1055.428955	686.2000122
1055.994119	683.4000244
1056.559226	687.2000122
1057.124275	683.0
1057.689266	683.2000122
1058.254199	685.4000244
1058.819074	686.0
1059.383891	680.7999878
1059.94865	683.0
1060.513352	679.5999756
1061.077996	685.0
1061.642582	682.4000244
1062.20711	682.2000122
1062.77158	684.0
1063.335992	684.7999878
1063.900347	680.0
1064.464643	680.2000122
1065.028882	682.2000122
1065.593063	681.4000244
1066.157187	681.4000244
1066.721252	678.5999756
1067.28526	682.0
1067.84921	682.2000122
1068.413102	680.7999878
1068.976936	681.2000122
1069.540713	682.2000122
1070.104431	686.5999756
1070.668092	678.7999878
1071.231696	679.4000244
1071.795241	680.4000244
1072.358729	679.7999878
1072.922159	679.4000244
1073.485531	678.2000122
1074.048845	682.2000122
1074.612102	682.2000122
1075.175301	677.0
1075.738442	679.4000244
1076.301525	680.4000244
1076.864551	680.7999878
1077.427519	679.2000122
1077.990429	678.7999878
1078.553281	681.2000122
1079.116076	677.4000244
1079.678813	680.5999756
1080.241492	677.0
1080.804114	682.2000122
1081.366678	679.7999878
1081.929184	679.4000244
1082.491633	681.7999878
1083.054024	677.2000122
1083.616357	682.0
1084.178632	678.7999878
1084.74085	677.0
1085.30301	677.7999878
1085.865113	676.0
1086.427158	682.7999878
1086.989145	680.4000244
1087.551074	679.0
1088.112946	680.7999878
1088.67476	678.0
1089.236517	679.4000244
1089.798216	677.4000244
1090.359857	676.5999756
1090.92144	679.4000244
1091.482966	676.5999756
1092.044435	674.7999878
1092.605845	677.0
1093.167199	678.2000122
1093.728494	677.5999756
1094.289732	677.5999756
1094.850912	678.4000244
1095.412035	686.2000122
1095.9731	678.7999878
1096.534107	678.4000244
1097.095057	684.7999878
1097.65595	677.7999878
1098.216784	682.5999756
1098.777561	674.4000244
1099.338281	678.4000244
1099.898943	678.2000122
1100.459547	675.7999878
1101.020094	677.5999756
1101.580584	679.7999878
1102.141015	676.7999878
1102.701389	676.7999878
1103.261706	676.2000122
1103.821965	677.2000122
1104.382167	677.4000244
1104.942311	675.5999756
1105.502397	679.4000244
1106.062426	679.7999878
1106.622398	677.2000122
1107.182312	679.0
1107.742168	674.7999878
1108.301967	677.5999756
1108.861708	676.4000244
1109.421392	678.2000122
1109.981019	674.4000244
1110.540587	680.4000244
1111.100099	678.2000122
1111.659553	675.5999756
1112.218949	679.0
1112.778288	677.2000122
1113.33757	676.4000244
1113.896794	678.7999878
1114.45596	679.5999756
1115.015069	673.5999756
1115.574121	678.2000122
1116.133115	678.2000122
1116.692052	680.2000122
1117.250931	680.0
1117.809753	675.7999878
1118.368517	677.0
1118.927224	674.4000244
1119.485873	679.4000244
1120.044465	676.0
1120.603	678.5999756
1121.161477	676.7999878
1121.719897	675.7999878
1122.278259	677.5999756
1122.836564	680.4000244
1123.394812	676.4000244
1123.953002	676.4000244
1124.511135	676.0
1125.06921	675.5999756
1125.627228	676.7999878
1126.185189	674.7999878
1126.743092	675.2000122
1127.300938	678.4000244
1127.858726	677.4000244
1128.416457	677.2000122
1128.974131	678.4000244
1129.531748	679.2000122
1130.089307	676.0
1130.646808	680.0
1131.204252	675.5999756
1131.761639	676.5999756
1132.318969	676.4000244
1132.876241	678.4000244
1133.433456	679.5999756
1133.990614	676.0
1134.547714	676.0
1135.104757	679.4000244
1135.661743	680.4000244
1136.218671	678.5999756
1136.775542	676.7999878
1137.332356	672.7999878
1137.889112	676.0
1138.445811	676.2000122
1139.002453	675.0
1139.559037	677.4000244
1140.115565	675.5999756
1140.672035	675.5999756
1141.228447	679.7999878
1141.784803	676.2000122
1142.341101	679.0
1142.897342	679.7999878
1143.453525	677.2000122
1144.009651	676.4000244
1144.565721	680.5999756
1145.121732	677.0
1145.677687	680.0
1146.233584	677.7999878
1146.789424	678.2000122
1147.345207	683.5999756
1147.900933	678.5999756
1148.456601	677.5999756
1149.012212	680.2000122
1149.567766	684.2000122
1150.123263	701.7999878
1150.678702	716.7999878
1151.234085	690.7999878
1151.78941	680.0
1152.344678	677.5999756
1152.899888	679.4000244
1153.455042	678.7999878
1154.010138	678.0
1154.565177	678.7999878
1155.120159	677.0
1155.675084	677.4000244
1156.229951	676.7999878
1156.784762	673.7999878
1157.339515	677.7999878
1157.894211	674.7999878
1158.44885	675.5999756
1159.003432	678.4000244
1159.557956	675.2000122
1160.112424	675.5999756
1160.666834	679.2000122
1161.221187	674.2000122
1161.775483	676.7999878
1162.329722	680.2000122
1162.883904	675.5999756
1163.438029	674.7999878
1163.992096	676.4000244
1164.546107	676.0
1165.10006	675.2000122
1165.653956	677.5999756
1166.207795	679.2000122
1166.761577	676.0
1167.315302	677.4000244
1167.86897	676.4000244
1168.422581	676.7999878
1168.976134	675.0
1169.529631	679.4000244
1170.08307	675.7999878
1170.636453	679.4000244
1171.189778	676.4000244
1171.743046	674.4000244
1172.296257	673.4000244
1172.849412	672.5999756
1173.402509	676.5999756
1173.955549	677.4000244
1174.508532	679.4000244
1175.061458	679.5999756
1175.614327	675.2000122
1176.167138	677.5999756
1176.719893	676.2000122
1177.272591	676.5999756
1177.825232	676.2000122
1178.377816	672.4000244
1178.930342	676.4000244
1179.482812	677.0
1180.035225	675.2000122
1180.587581	676.0
1181.139879	677.2000122
1181.692121	680.0
1182.244306	675.2000122
1182.796434	675.2000122
1183.348504	676.5999756
1183.900518	678.2000122
1184.452475	674.7999878
1185.004375	673.5999756
1185.556218	674.5999756
1186.108004	677.0
1186.659733	676.2000122
1187.211405	676.5999756
1187.76302	677.5999756
1188.314578	677.4000244
1188.866079	674.4000244
1189.417523	674.2000122
1189.96891	675.0
1190.520241	674.0
1191.071514	674.4000244
1191.622731	677.2000122
1192.17389	674.0
1192.724993	674.0
1193.276039	693.0
1193.827027	674.7999878
1194.377959	672.7999878
1194.928834	676.5999756
1195.479653	674.0
1196.030414	675.4000244
1196.581118	671.4000244
1197.131766	676.2000122
1197.682356	677.7999878
1198.23289	675.5999756
1198.783367	676.0
1199.333786	673.0
1199.88415	674.5999756
1200.434456	674.4000244
1200.984705	675.7999878
1201.534898	673.2000122
1202.085033	673.5999756
1202.635112	676.0
1203.185134	675.7999878
1203.735099	674.2000122
1204.285007	673.7999878
1204.834859	676.0
1205.384653	677.5999756
1205.934391	678.2000122
1206.484072	677.4000244
1207.033696	675.0
1207.583263	675.4000244
1208.132774	676.5999756
1208.682228	676.0
1209.231624	676.0
1209.780965	674.0
1210.330248	675.5999756
1210.879474	676.4000244
1211.428644	675.4000244
1211.977757	677.0
1212.526813	673.7999878
1213.075813	672.4000244
1213.624755	678.2000122
1214.173641	674.5999756
1214.72247	675.5999756
1215.271242	678.4000244
1215.819958	677.4000244
1216.368617	675.4000244
1216.917219	677.0
1217.465764	676.0
1218.014253	677.4000244
1218.562685	671.7999878
1219.11106	676.7999878
1219.659378	678.2000122
1220.20764	675.5999756
1220.755845	676.2000122
1221.303993	673.7999878
1221.852085	675.5999756
1222.400119	674.0
1222.948097	677.2000122
1223.496019	674.5999756
1224.043883	674.7999878
1224.591691	676.2000122
1225.139443	675.2000122
1225.687137	673.0
1226.234775	674.5999756
1226.782357	674.2000122
1227.329881	677.2000122
1227.877349	674.2000122
1228.42476	674.0
1228.972115	674.0
1229.519413	674.0
1230.066654	674.7999878
1230.613839	674.7999878
1231.160967	675.4000244
1231.708038	676.4000244
1232.255053	677.7999878
1232.802011	677.5999756
1233.348912	672.0
1233.895757	677.4000244
1234.442545	673.5999756
1234.989277	676.4000244
1235.535951	672.7999878
1236.08257	676.4000244
1236.629131	677.0
1237.175636	675.0
1237.722085	676.5999756
1238.268477	675.4000244
1238.814812	674.4000244
1239.361091	676.4000244
1239.907313	676.2000122
1240.453478	677.7999878
1240.999587	674.4000244
1241.54564	674.5999756
1242.091636	673.5999756
1242.637575	675.4000244
1243.183457	677.2000122
1243.729284	675.2000122
1244.275053	676.4000244
1244.820766	676.4000244
1245.366423	675.5999756
1245.912022	672.7999878
1246.457566	676.4000244
1247.003053	676.4000244
1247.548483	675.0
1248.093857	677.0
1248.639174	674.7999878
1249.184435	676.5999756
1249.729639	676.5999756
1250.274787	671.2000122
1250.819878	675.0
1251.364912	675.0
1251.909891	674.4000244
1252.454812	675.2000122
1252.999677	676.2000122
1253.544486	677.5999756
1254.089238	677.0
1254.633934	673.2000122
1255.178573	675.4000244
1255.723156	678.5999756
1256.267682	675.5999756
1256.812152	676.4000244
1257.356565	678.0
1257.900922	677.2000122
1258.445223	677.0
1258.989467	680.0
1259.533654	678.4000244
1260.077785	688.2000122
1260.62186	678.0
1261.165878	682.5999756
1261.70984	682.4000244
1262.253745	683.0
1262.797594	682.4000244
1263.341386	690.2000122
1263.885123	688.2000122
1264.428802	689.0
1264.972425	691.5999756
1265.515992	687.0
1266.059503	681.5999756
1266.602957	677.5999756
1267.146354	679.2000122
1267.689696	679.2000122
1268.23298	683.2000122
1268.776209	677.0
1269.319381	677.5999756
1269.862497	675.0
1270.405556	676.0
1270.948559	676.2000122
1271.491506	673.7999878
1272.034396	674.5999756
1272.57723	676.2000122
1273.120007	673.4000244
1273.662728	676.4000244
1274.205393	675.4000244
1274.748002	674.5999756
1275.290554	676.7999878
1275.83305	675.7999878
1276.375489	677.0
1276.917872	676.5999756
1277.460199	677.4000244
1278.00247	680.2000122
1278.544684	676.7999878
1279.086842	683.2000122
1279.628943	682.7999878
1280.170989	682.5999756
1280.712978	685.2000122
1281.25491	695.7999878
1281.796787	709.7999878
1282.338607	733.5999756
1282.880371	781.2000122
1283.422078	865.4000244
1283.963729	917.2000122
1284.505324	938.7999878
1285.046863	860.5999756
1285.588345	772.4000244
1286.129772	726.2000122
1286.671142	699.2000122
1287.212455	691.0
1287.753713	685.7999878
1288.294914	682.0
1288.836059	678.7999878
1289.377147	679.7999878
1289.91818	675.7999878
1290.459156	676.7999878
1291.000076	682.7999878
1291.54094	679.2000122
1292.081747	677.7999878
1292.622499	678.4000244
1293.163194	681.7999878
1293.703833	677.4000244
1294.244415	677.2000122
1294.784942	677.4000244
1295.325412	677.0
1295.865826	676.7999878
1296.406184	673.7999878
1296.946486	673.4000244
1297.486731	676.2000122
1298.026921	676.4000244
1298.567054	674.4000244
1299.107131	677.2000122
1299.647152	675.7999878
1300.187116	674.4000244
1300.727025	675.7999878
1301.266877	676.2000122
1301.806673	676.4000244
1302.346413	677.0
1302.886097	673.5999756
1303.425725	678.7999878
1303.965297	676.2000122
1304.504812	675.2000122
1305.044272	676.2000122
1305.583675	675.2000122
1306.123022	671.2000122
1306.662313	675.2000122
1307.201548	673.7999878
1307.740727	673.4000244
1308.279849	673.7999878
1308.818916	674.5999756
1309.357926	675.0
1309.896881	674.4000244
1310.435779	674.0
1310.974621	673.2000122
1311.513407	673.7999878
1312.052137	673.7999878
1312.590811	674.0
1313.129429	676.2000122
1313.667991	675.2000122
1314.206497	674.7999878
1314.744946	674.4000244
1315.28334	675.0
1315.821678	677.0
1316.359959	676.4000244
1316.898184	674.0
1317.436354	674.7999878
1317.974467	674.0
1318.512525	675.4000244
1319.050526	675.5999756
1319.588471	674.2000122
1320.12636	675.5999756
1320.664194	675.7999878
1321.201971	674.5999756
1321.739692	675.2000122
1322.277357	673.2000122
1322.814967	676.2000122
1323.35252	677.5999756
1323.890017	678.7999878
1324.427458	675.5999756
1324.964843	676.4000244
1325.502173	677.4000244
1326.039446	675.7999878
1326.576663	673.7999878
1327.113824	674.0
1327.65093	672.4000244
1328.187979	674.4000244
1328.724972	673.2000122
1329.26191	675.5999756
1329.798791	671.0
1330.335617	670.4000244
1330.872386	674.0
1331.4091	675.4000244
1331.945758	671.0
1332.48236	677.4000244
1333.018905	674.4000244
1333.555395	675.0
1334.091829	673.2000122
1334.628207	676.4000244
1335.164529	673.2000122
1335.700796	676.5999756
1336.237006	675.0
1336.77316	672.2000122
1337.309259	676.7999878
1337.845301	673.5999756
1338.381288	675.7999878
1338.917219	675.0
1339.453094	672.5999756
1339.988913	674.4000244
1340.524676	673.4000244
1341.060383	675.5999756
1341.596034	674.2000122
1342.13163	675.2000122
1342.66717	676.2000122
1343.202653	676.7999878
1343.738081	675.0
1344.273453	671.4000244
1344.80877	671.4000244
1345.34403	672.4000244
1345.879235	676.7999878
1346.414383	675.4000244
1346.949476	673.5999756
1347.484513	675.7999878
1348.019494	673.5999756
1348.55442	670.5999756
1349.089289	671.7999878
1349.624103	678.2000122
1350.158861	679.2000122
1350.693563	675.7999878
1351.228209	673.2000122
1351.7628	674.0
1352.297334	673.7999878
1352.831813	675.4000244
1353.366236	676.7999878
1353.900604	674.7999878
1354.434915	676.4000244
1354.969171	674.0
1355.503371	680.0
1356.037515	674.2000122
1356.571604	676.5999756
1357.105636	673.5999756
1357.639613	673.0
1358.173535	675.0
1358.7074	675.0
1359.24121	672.0
1359.774964	673.5999756
1360.308662	675.7999878
1360.842304	675.4000244
1361.375891	672.4000244
1361.909422	670.7999878
1362.442897	676.4000244
1362.976317	676.2000122
1363.50968	672.7999878
1364.042989	674.2000122
1364.576241	675.7999878
1365.109438	673.4000244
1365.642579	676.7999878
1366.175664	675.4000244
1366.708693	675.5999756
1367.241667	675.7999878
1367.774585	675.4000244
1368.307448	676.5999756
1368.840255	675.7999878
1369.373006	678.7999878
1369.905701	682.5999756
1370.438341	686.2000122
1370.970925	679.7999878
1371.503454	675.4000244
1372.035926	674.2000122
1372.568344	678.7999878
1373.100705	676.0
1373.633011	677.0
1374.165261	675.0
1374.697456	674.2000122
1375.229595	677.2000122
1375.761678	678.0
1376.293705	676.4000244
1376.825677	679.0
1377.357594	678.5999756
1377.889455	676.5999756
1378.42126	677.7999878
1378.953009	677.4000244
1379.484703	679.0
1380.016342	679.0
1380.547924	677.0
1381.079452	677.5999756
1381.610923	680.7999878
1382.142339	680.4000244
1382.673699	684.5999756
1383.205004	685.2000122
1383.736253	687.5999756
1384.267447	688.0
1384.798585	692.2000122
1385.329668	700.2000122
1385.860695	713.7999878
1386.391666	742.7999878
1386.922582	818.5999756
1387.453442	988.0
1387.984247	1208.199951
1388.514996	1208.800049
1389.04569	953.7999878
1389.576328	793.0
1390.10691	727.7999878
1390.637437	704.4000244
1391.167909	695.7999878
1391.698325	689.7999878
1392.228685	684.4000244
1392.75899	682.4000244
1393.28924	684.5999756
1393.819434	683.0
1394.349572	679.4000244
1394.879655	677.4000244
1395.409683	681.2000122
1395.939655	678.5999756
1396.469571	680.0
1396.999432	678.5999756
1397.529237	675.4000244
1398.058987	677.5999756
1398.588682	678.5999756
1399.118321	677.7999878
1399.647905	675.4000244
1400.177433	677.5999756
1400.706906	674.7999878
1401.236323	676.4000244
1401.765685	677.4000244
1402.294991	676.5999756
1402.824242	674.0
1403.353437	678.2000122
1403.882577	680.0
1404.411662	676.0
1404.940691	678.5999756
1405.469665	680.2000122
1405.998583	679.2000122
1406.527446	681.0
1407.056253	681.2000122
1407.585005	682.2000122
1408.113702	687.7999878
1408.642343	694.2000122
1409.170929	699.0
1409.69946	700.2000122
1410.227935	697.5999756
1410.756354	696.5999756
1411.284719	686.7999878
1411.813028	679.5999756
1412.341281	681.5999756
1412.869479	677.5999756
1413.397622	675.0
1413.92571	672.0
1414.453742	676.2000122
1414.981718	673.2000122
1415.50964	687.5999756
1416.037506	670.7999878
1416.565316	675.7999878
1417.093072	673.0
1417.620772	674.7999878
1418.148416	675.7999878
1418.676005	673.0
1419.203539	676.0
1419.731018	672.2000122
1420.258441	672.2000122
1420.785809	675.0
1421.313122	672.7999878
1421.840379	675.2000122
1422.367582	671.4000244
1422.894728	671.7999878
1423.42182	674.2000122
1423.948856	672.7999878
1424.475837	673.4000244
1425.002762	675.2000122
1425.529633	676.5999756
1426.056448	674.2000122
1426.583207	673.7999878
1427.109912	671.0
1427.636561	675.2000122
1428.163155	671.0
1428.689694	671.5999756
1429.216177	673.5999756
1429.742605	674.0
1430.268978	673.5999756
1430.795296	672.5999756
1431.321558	671.7999878
1431.847765	673.0
1432.373917	671.5999756
1432.900014	672.4000244
1433.426056	674.7999878
1433.952042	673.0
1434.477973	670.2000122
1435.003849	673.0
1435.529669	675.0
1436.055435	670.5999756
1436.581145	671.4000244
1437.1068	673.7999878
1437.632399	674.5999756
1438.157944	670.4000244
1438.683433	669.5999756
1439.208868	670.7999878
1439.734247	672.5999756
1440.25957	671.4000244
1440.784839	671.0
1441.310053	668.5999756
1441.835211	671.4000244
1442.360314	669.5999756
1442.885362	672.0
1443.410355	673.7999878
1443.935292	672.2000122
1444.460175	671.4000244
1444.985002	672.2000122
1445.509774	675.5999756
1446.034491	672.2000122
1446.559153	669.2000122
1447.08376	673.0
1447.608312	672.0
1448.132808	673.5999756
1448.65725	674.5999756
1449.181636	670.0
1449.705967	670.0
1450.230243	671.5999756
1450.754464	672.2000122
1451.27863	673.5999756
1451.802741	673.7999878
1452.326797	672.5999756
1452.850797	671.7999878
1453.374743	672.2000122
1453.898633	671.7999878
1454.422468	674.7999878
1454.946249	673.7999878
1455.469974	669.7999878
1455.993644	671.4000244
1456.517259	670.4000244
1457.040819	670.7999878
1457.564324	670.0
1458.087773	673.4000244
1458.611168	672.4000244
1459.134508	673.4000244
1459.657793	672.5999756
1460.181022	671.2000122
1460.704197	670.7999878
1461.227316	673.2000122
1461.750381	671.2000122
1462.27339	673.4000244
1462.796345	684.0
1463.842089	694.2000122
1464.364878	673.0
1464.887613	672.2000122
1465.410292	674.2000122
1465.932916	668.7999878
1466.455486	670.0
1466.978	675.0
1467.50046	669.2000122
1468.022864	670.0
1468.545214	672.2000122
1469.067508	673.5999756
1469.589748	671.5999756
1470.111932	673.0
1470.634062	672.0
1471.156136	670.7999878
1471.678156	667.0
1472.20012	674.5999756
1472.72203	672.5999756
1473.243885	672.4000244
1473.765685	673.4000244
1474.28743	669.5999756
1474.80912	672.0
1475.330755	672.4000244
1475.852335	672.0
1476.37386	671.2000122
1476.89533	671.7999878
1477.416745	672.5999756
1477.938106	673.4000244
1478.459411	669.5999756
1478.980662	672.0
1479.501857	673.4000244
1480.022998	671.2000122
1480.544084	672.5999756
1481.065115	670.5999756
1481.586091	669.2000122
1482.107012	673.7999878
1482.627878	675.2000122
1483.14869	672.7999878
1483.669446	671.5999756
1484.190148	673.5999756
1484.710794	670.4000244
1485.231386	668.5999756
1485.751923	669.5999756
1486.272406	671.2000122
1486.792833	671.0
1487.313205	669.2000122
1487.833523	673.7999878
1488.353786	671.7999878
1488.873994	670.0
1489.394147	671.7999878
1489.914245	671.7999878
1490.434288	672.0
1490.954277	672.0
1491.474211	670.7999878
1491.99409	670.0
1492.513914	672.2000122
1493.033683	672.2000122
1493.553398	670.4000244
1494.073057	670.7999878
1494.592662	670.0
1495.112212	671.2000122
1495.631708	673.5999756
1496.151148	669.0
1496.670534	672.0
1497.189865	671.7999878
1497.709141	671.2000122
1498.228362	673.5999756
1498.747529	672.2000122
1499.266641	673.4000244
1499.785698	676.5999756
1500.3047	670.2000122
1500.823648	671.0
1501.34254	672.5999756
1501.861379	671.5999756
1502.380162	671.4000244
1502.89889	673.2000122
1503.417564	669.5999756
1503.936183	673.5999756
1504.454748	671.7999878
1504.973257	671.0
1505.491712	671.2000122
1506.010112	672.4000244
1506.528458	669.2000122
1507.046748	673.7999878
1507.564984	672.2000122
1508.083166	670.7999878
1508.601292	672.7999878
1509.119364	671.2000122
1509.637381	673.5999756
1510.155344	669.5999756
1510.673252	678.5999756
1511.191105	670.7999878
1511.708903	671.2000122
1512.226647	671.7999878
1512.744336	674.0
1513.261971	671.7999878
1513.77955	671.5999756
1514.297076	670.5999756
1514.814546	672.0
1515.331962	669.5999756
1515.849323	671.2000122
1516.366629	669.4000244
1516.883881	670.4000244
1517.401078	672.0
1517.918221	669.5999756
1518.435309	672.5999756
1518.952342	672.5999756
1519.469321	672.7999878
1519.986245	671.0
1520.503114	671.4000244
1521.019929	671.0
1521.536689	671.5999756
1522.053395	671.7999878
1522.570046	670.5999756
1523.086642	675.2000122
1523.603184	670.2000122
1524.119671	671.7999878
1524.636103	672.5999756
1525.152481	674.4000244
1525.668805	677.2000122
1526.185073	697.5999756
1526.701288	699.2000122
1527.217447	680.4000244
1527.733552	672.2000122
1528.249603	669.7999878
1528.765599	671.2000122
1529.28154	673.5999756
1529.797427	671.4000244
1530.313259	673.5999756
1530.829037	671.7999878
1531.34476	670.4000244
1531.860429	671.7999878
1532.376043	671.2000122
1532.891602	669.5999756
1533.407107	670.7999878
1533.922558	669.7999878
1534.437954	674.2000122
1534.953295	667.5999756
1535.468582	670.5999756
1535.983815	672.0
1536.498993	670.4000244
1537.014116	671.4000244
1537.529185	671.5999756
1538.044199	675.0
1538.559159	671.0
1539.074064	670.5999756
1539.588915	668.5999756
1540.103712	671.0
1540.618454	667.4000244
1541.133141	672.4000244
1541.647774	671.0
1542.162353	673.0
1542.676877	669.7999878
1543.191346	672.7999878
1543.705761	674.0
1544.220122	674.0
1544.734428	671.4000244
1545.24868	670.2000122
1545.762877	671.4000244
1546.27702	670.4000244
1546.791109	670.2000122
1547.305143	673.7999878
1547.819122	675.4000244
1548.333047	671.5999756
1548.846918	670.4000244
1549.360734	671.0
1549.874496	674.0
1550.388204	671.0
1550.901857	675.5999756
1551.415455	672.5999756
1551.929	672.0
1552.442489	674.5999756
1552.955925	674.2000122
1553.469306	672.0
1553.982632	671.4000244
1554.495905	672.0
1555.009123	671.4000244
1555.522286	672.7999878
1556.035395	673.2000122
1556.54845	672.2000122
1557.06145	672.4000244
1557.574396	673.7999878
1558.087288	673.2000122
1558.600125	672.7999878
1559.112908	673.4000244
1559.625637	674.7999878
1560.138311	675.0
1560.650931	674.5999756
1561.163497	672.7999878
1561.676008	672.5999756
1562.188465	671.7999878
1562.700867	674.7999878
1563.213216	674.4000244
1563.725509	675.0
1564.237749	674.0
1564.749934	676.0
1565.262065	677.0
1565.774142	677.2000122
1566.286164	678.5999756
1566.798132	677.4000244
1567.310046	677.0
1567.821906	676.5999756
1568.333711	674.4000244
1568.845462	677.5999756
1569.357158	677.0
1569.868801	675.0
1570.380389	678.2000122
1570.891922	672.5999756
1571.403402	672.4000244
1571.914827	674.0
1572.426198	670.7999878
1572.937515	669.7999878
1573.448777	674.0
1573.959985	670.0
1574.471139	669.4000244
1574.982239	672.5999756
1575.493285	673.4000244
1576.004276	671.0
1576.515213	671.7999878
1577.026096	672.4000244
1577.536924	671.5999756
1578.047698	671.0
1578.558419	672.4000244
1579.069084	671.2000122
1579.579696	671.2000122
1580.090254	672.7999878
1580.600757	669.2000122
1581.111206	669.7999878
1581.621601	672.2000122
1582.131941	671.0
1582.642228	670.0
1583.15246	669.7999878
1583.662638	674.0
1584.172762	755.0
1585.702809	674.7999878
1586.212716	673.4000244
1586.722569	671.7999878
1587.742113	681.4000244
1588.251803	670.5999756
1588.76144	669.4000244
1589.271022	673.5999756
1589.78055	671.2000122
1590.290024	670.5999756
1590.799444	672.5999756
1591.30881	673.5999756
1591.818121	671.5999756
1592.327379	668.4000244
