1042.414189	700.25
1042.980685	704.5
1043.547124	692.5
1044.113505	698.0
1044.679828	693.75
1045.246093	689.75
1045.8123	691.75
1046.378449	688.25
1046.94454	688.5
1047.510573	689.25
1048.076548	685.75
1048.642465	684.5
1049.208325	683.75
1049.774126	685.75
1050.339869	685.25
1050.905555	682.0
1051.471183	680.5
1052.036752	680.0
1052.602264	679.25
1053.167718	682.0
1053.733114	679.75
1054.298452	678.5
1054.863733	676.0
1055.428955	678.5
1055.994119	679.5
1056.559226	678.75
1057.124275	676.0
1057.689266	677.25
1058.254199	672.75
1058.819074	676.75
1059.383891	674.25
1059.94865	676.5
1060.513352	676.5
1061.077996	675.0
1061.642582	674.25
1062.20711	677.5
1062.77158	677.75
1063.335992	673.0
1063.900347	674.0
1064.464643	673.5
1065.028882	675.75
1065.593063	673.0
1066.157187	671.0
1066.721252	674.75
1067.28526	672.25
1067.84921	674.25
1068.413102	673.25
1068.976936	673.0
1069.540713	673.75
1070.104431	681.0
1070.668092	673.25
1071.231696	669.5
1071.795241	668.0
1072.358729	673.5
1072.922159	671.75
1073.485531	670.75
1074.048845	675.75
1074.612102	671.25
1075.175301	671.75
1075.738442	670.5
1076.301525	669.75
1076.864551	672.75
1077.427519	672.0
1077.990429	670.0
1078.553281	671.25
1079.116076	669.25
1079.678813	672.5
1080.241492	674.25
1080.804114	672.5
1081.366678	670.5
1081.929184	670.5
1082.491633	669.0
1083.054024	670.0
1083.616357	674.0
1084.178632	672.0
1084.74085	672.75
1085.30301	669.5
1085.865113	671.25
1086.427158	672.75
1086.989145	673.75
1087.551074	671.5
1088.112946	668.75
1088.67476	671.5
1089.236517	671.75
1089.798216	667.0
1090.359857	674.0
1090.92144	667.25
1091.482966	668.0
1092.044435	670.0
1092.605845	671.75
1093.167199	671.25
1093.728494	670.75
1094.289732	669.0
1094.850912	670.0
1095.412035	676.75
1095.9731	670.0
1096.534107	671.75
1097.095057	680.0
1097.65595	670.25
1098.216784	671.25
1098.777561	670.0
1099.338281	669.75
1099.898943	668.75
1100.459547	672.5
1101.020094	669.0
1101.580584	668.75
1102.141015	671.0
1102.701389	672.5
1103.261706	670.5
1103.821965	668.5
1104.382167	669.0
1104.942311	667.25
1105.502397	674.5
1106.062426	672.25
1106.622398	669.75
1107.182312	668.0
1107.742168	671.0
1108.301967	667.25
1108.861708	667.5
1109.421392	669.0
1109.981019	672.5
1110.540587	671.25
1111.100099	671.25
1111.659553	669.75
1112.218949	670.5
1112.778288	672.5
1113.33757	668.75
1113.896794	670.75
1114.45596	668.75
1115.015069	668.75
1115.574121	668.75
1116.133115	672.75
1116.692052	667.25
1117.250931	669.75
1117.809753	665.75
1118.368517	672.5
1118.927224	668.75
1119.485873	668.75
1120.044465	671.25
1120.603	668.25
1121.161477	669.5
1121.719897	671.0
1122.278259	668.75
1122.836564	665.25
1123.394812	672.0
1123.953002	669.25
1124.511135	670.0
1125.06921	671.25
1125.627228	671.5
1126.185189	670.75
1126.743092	670.0
1127.300938	669.25
1127.858726	669.0
1128.416457	672.25
1128.974131	671.75
1129.531748	671.0
1130.089307	670.0
1130.646808	669.75
1131.204252	673.5
1131.761639	670.0
1132.318969	668.0
1132.876241	668.75
1133.433456	670.25
1133.990614	673.0
1134.547714	667.5
1135.104757	669.5
1135.661743	668.5
1136.218671	669.25
1136.775542	669.75
1137.332356	669.0
1137.889112	670.75
1138.445811	671.75
1139.002453	671.0
1139.559037	667.25
1140.115565	667.75
1140.672035	670.0
1141.228447	671.5
1141.784803	672.75
1142.341101	673.0
1142.897342	674.0
1143.453525	676.25
1144.009651	673.25
1144.565721	671.25
1145.121732	674.25
1145.677687	670.25
1146.233584	671.75
1146.789424	673.5
1147.345207	679.5
1147.900933	677.75
1148.456601	673.75
1149.012212	676.75
1149.567766	680.0
1150.123263	709.5
1150.678702	737.25
1151.234085	705.25
1151.78941	680.0
1152.344678	671.25
1152.899888	670.25
1153.455042	671.5
1154.010138	669.25
1154.565177	669.75
1155.120159	669.0
1155.675084	667.5
1156.229951	670.25
1156.784762	667.5
1157.339515	668.75
1157.894211	669.0
1158.44885	666.0
1159.003432	670.5
1159.557956	668.5
1160.112424	670.75
1160.666834	670.5
1161.221187	673.75
1161.775483	669.75
1162.329722	672.75
1162.883904	670.25
1163.438029	668.5
1163.992096	672.0
1164.546107	668.25
1165.10006	669.25
1165.653956	672.25
1166.207795	670.5
1166.761577	670.25
1167.315302	670.5
1167.86897	670.0
1168.422581	667.75
1168.976134	669.25
1169.529631	666.75
1170.08307	668.5
1170.636453	668.75
1171.189778	665.5
1171.743046	670.5
1172.296257	669.75
1172.849412	667.75
1173.402509	668.5
1173.955549	668.25
1174.508532	669.75
1175.061458	666.5
1175.614327	671.75
1176.167138	669.75
1176.719893	671.25
1177.272591	670.75
1177.825232	670.75
1178.377816	668.75
1178.930342	669.25
1179.482812	667.0
1180.035225	673.25
1180.587581	668.25
1181.139879	668.0
1181.692121	668.25
1182.244306	669.0
1182.796434	673.5
1183.348504	670.0
1183.900518	667.5
1184.452475	668.5
1185.004375	671.0
1185.556218	668.25
1186.108004	668.0
1186.659733	667.25
1187.211405	668.25
1187.76302	669.75
1188.314578	670.25
1188.866079	672.75
1189.417523	672.0
1189.96891	669.75
1190.520241	669.0
1191.071514	669.5
1191.622731	670.0
1192.17389	670.75
1192.724993	670.0
1193.276039	689.25
1193.827027	667.0
1194.377959	669.75
1194.928834	668.5
1195.479653	668.5
1196.030414	667.75
1196.581118	668.0
1197.131766	670.75
1197.682356	667.0
1198.23289	672.5
1198.783367	670.25
1199.333786	668.75
1199.88415	669.25
1200.434456	668.0
1200.984705	669.25
1201.534898	668.5
1202.085033	669.75
1202.635112	669.0
1203.185134	667.25
1203.735099	669.75
1204.285007	670.75
1204.834859	671.0
1205.384653	671.0
1205.934391	667.5
1206.484072	668.0
1207.033696	670.0
1207.583263	666.5
1208.132774	666.5
1208.682228	667.5
1209.231624	668.5
1209.780965	668.0
1210.330248	670.0
1210.879474	666.5
1211.428644	668.0
1211.977757	671.5
1212.526813	669.25
1213.075813	671.0
1213.624755	672.0
1214.173641	666.75
1214.72247	671.25
1215.271242	667.5
1215.819958	672.25
1216.368617	665.75
1216.917219	668.75
1217.465764	667.0
1218.014253	667.25
1218.562685	670.5
1219.11106	672.75
1219.659378	670.75
1220.20764	670.0
1220.755845	668.75
1221.303993	668.75
1221.852085	668.75
1222.400119	670.25
1222.948097	672.25
1223.496019	671.5
1224.043883	669.75
1224.591691	671.75
1225.139443	671.5
1225.687137	669.25
1226.234775	668.75
1226.782357	667.25
1227.329881	669.0
1227.877349	671.75
1228.42476	668.5
1228.972115	670.25
1229.519413	670.0
1230.066654	669.25
1230.613839	669.75
1231.160967	673.5
1231.708038	671.75
1232.255053	672.0
1232.802011	669.25
1233.348912	670.0
1233.895757	670.5
1234.442545	670.0
1234.989277	669.25
1235.535951	670.25
1236.08257	672.0
1236.629131	671.0
1237.175636	669.5
1237.722085	668.75
1238.268477	672.0
1238.814812	670.25
1239.361091	670.0
1239.907313	671.0
1240.453478	672.25
1240.999587	669.75
1241.54564	672.75
1242.091636	671.25
1242.637575	670.0
1243.183457	670.5
1243.729284	671.25
1244.275053	670.5
1244.820766	668.5
1245.366423	671.25
1245.912022	671.25
1246.457566	671.5
1247.003053	671.75
1247.548483	669.25
1248.093857	672.75
1248.639174	672.0
1249.184435	669.75
1249.729639	671.75
1250.274787	671.0
1250.819878	670.75
1251.364912	673.0
1251.909891	675.0
1252.454812	668.75
1252.999677	670.5
1253.544486	669.0
1254.089238	672.0
1254.633934	669.75
1255.178573	672.75
1255.723156	672.75
1256.267682	675.0
1256.812152	672.0
1257.356565	672.5
1257.900922	674.75
1258.445223	674.25
1258.989467	674.75
1259.533654	671.0
1260.077785	682.5
1260.62186	671.25
1261.165878	674.75
1261.70984	671.75
1262.253745	676.0
1262.797594	680.5
1263.341386	679.5
1263.885123	684.5
1264.428802	685.0
1264.972425	685.5
1265.515992	686.75
1266.059503	680.0
1266.602957	678.5
1267.146354	675.5
1267.689696	675.25
1268.23298	673.25
1268.776209	676.0
1269.319381	667.5
1269.862497	675.25
1270.405556	674.0
1270.948559	674.0
1271.491506	673.75
1272.034396	671.0
1272.57723	674.0
1273.120007	672.0
1273.662728	676.25
1274.205393	674.5
1274.748002	674.25
1275.290554	673.75
1275.83305	672.75
1276.375489	673.5
1276.917872	671.25
1277.460199	674.5
1278.00247	671.5
1278.544684	674.25
1279.086842	674.75
1279.628943	675.75
1280.170989	677.5
1280.712978	682.0
1281.25491	684.5
1281.796787	690.25
1282.338607	710.75
1282.880371	739.5
1283.422078	784.5
1283.963729	847.5
1284.505324	902.75
1285.046863	885.75
1285.588345	822.0
1286.129772	736.75
1286.671142	701.75
1287.212455	686.75
1287.753713	680.25
1288.294914	680.5
1288.836059	681.25
1289.377147	676.75
1289.91818	675.25
1290.459156	675.5
1291.000076	674.25
1291.54094	674.0
1292.081747	672.75
1292.622499	670.75
1293.163194	677.25
1293.703833	672.0
1294.244415	674.0
1294.784942	670.5
1295.325412	672.25
1295.865826	671.0
1296.406184	674.0
1296.946486	670.75
1297.486731	671.25
1298.026921	672.0
1298.567054	667.5
1299.107131	672.25
1299.647152	671.5
1300.187116	674.25
1300.727025	674.0
1301.266877	673.25
1301.806673	673.25
1302.346413	671.0
1302.886097	674.5
1303.425725	672.0
1303.965297	670.75
1304.504812	673.25
1305.044272	672.25
1305.583675	672.75
1306.123022	673.5
1306.662313	670.0
1307.201548	669.25
1307.740727	672.0
1308.279849	674.0
1308.818916	672.75
1309.357926	671.0
1309.896881	671.0
1310.435779	670.0
1310.974621	669.5
1311.513407	671.25
1312.052137	671.25
1312.590811	674.25
1313.129429	672.0
1313.667991	672.75
1314.206497	668.25
1314.744946	670.25
1315.28334	673.25
1315.821678	673.0
1316.359959	669.0
1316.898184	665.75
1317.436354	672.5
1317.974467	673.75
1318.512525	671.25
1319.050526	676.25
1319.588471	672.5
1320.12636	673.0
1320.664194	669.75
1321.201971	671.0
1321.739692	670.75
1322.277357	670.5
1322.814967	671.25
1323.35252	668.75
1323.890017	675.75
1324.427458	668.75
1324.964843	673.5
1325.502173	674.5
1326.039446	670.5
1326.576663	669.75
1327.113824	669.75
1327.65093	672.5
1328.187979	672.25
1328.724972	669.25
1329.26191	669.5
1329.798791	669.25
1330.335617	671.5
1330.872386	673.0
1331.4091	668.0
1331.945758	671.25
1332.48236	674.25
1333.018905	671.25
1333.555395	666.75
1334.091829	670.0
1334.628207	672.5
1335.164529	670.75
1335.700796	674.5
1336.237006	669.75
1336.77316	670.5
1337.309259	672.75
1337.845301	671.5
1338.381288	669.75
1338.917219	671.25
1339.453094	671.25
1339.988913	672.5
1340.524676	673.0
1341.060383	671.25
1341.596034	669.75
1342.13163	669.25
1342.66717	668.25
1343.202653	672.75
1343.738081	673.25
1344.273453	673.5
1344.80877	671.0
1345.34403	671.0
1345.879235	672.25
1346.414383	671.5
1346.949476	673.0
1347.484513	671.25
1348.019494	667.25
1348.55442	672.5
1349.089289	671.5
1349.624103	672.25
1350.158861	669.25
1350.693563	668.5
1351.228209	672.25
1351.7628	674.25
1352.297334	673.75
1352.831813	672.5
1353.366236	671.5
1353.900604	669.0
1354.434915	673.25
1354.969171	673.0
1355.503371	669.75
1356.037515	673.0
1356.571604	671.0
1357.105636	673.75
1357.639613	674.5
1358.173535	674.5
1358.7074	671.25
1359.24121	671.0
1359.774964	671.0
1360.308662	671.75
1360.842304	674.25
1361.375891	672.5
1361.909422	672.75
1362.442897	671.25
1362.976317	674.0
1363.50968	672.75
1364.042989	671.0
1364.576241	673.0
1365.109438	671.25
1365.642579	672.5
1366.175664	670.0
1366.708693	671.0
1367.241667	671.0
1367.774585	675.5
1368.307448	675.0
1368.840255	670.0
1369.373006	673.25
1369.905701	677.25
1370.438341	683.25
1370.970925	676.5
1371.503454	677.75
1372.035926	673.75
1372.568344	674.25
1373.100705	671.5
1373.633011	671.25
1374.165261	672.25
1374.697456	674.5
1375.229595	674.0
1375.761678	675.75
1376.293705	674.75
1376.825677	673.0
1377.357594	674.5
1377.889455	675.5
1378.42126	677.0
1378.953009	675.0
1379.484703	674.0
1380.016342	676.0
1380.547924	675.0
1381.079452	674.75
1381.610923	675.5
1382.142339	677.5
1382.673699	678.75
1383.205004	678.5
1383.736253	681.5
1384.267447	683.75
1384.798585	688.0
1385.329668	692.25
1385.860695	698.0
1386.391666	726.5
1386.922582	766.75
1387.453442	881.0
1387.984247	1078.5
1388.514996	1205.75
1389.04569	1014.25
1389.576328	804.75
1390.10691	731.0
1390.637437	706.0
1391.167909	688.25
1391.698325	684.0
1392.228685	683.75
1392.75899	681.75
1393.28924	679.75
1393.819434	684.0
1394.349572	676.75
1394.879655	673.0
1395.409683	677.0
1395.939655	674.5
1396.469571	673.25
1396.999432	674.75
1397.529237	675.25
1398.058987	674.75
1398.588682	672.0
1399.118321	674.25
1399.647905	674.0
1400.177433	674.75
1400.706906	672.5
1401.236323	673.5
1401.765685	673.75
1402.294991	673.5
1402.824242	674.0
1403.353437	674.0
1403.882577	674.75
1404.411662	672.25
1404.940691	671.5
1405.469665	679.0
1405.998583	675.5
1406.527446	671.5
1407.056253	676.25
1407.585005	679.75
1408.113702	681.75
1408.642343	688.75
1409.170929	691.25
1409.69946	701.0
1410.227935	701.0
1410.756354	691.0
1411.284719	683.75
1411.813028	677.75
1412.341281	677.75
1412.869479	676.25
1413.397622	674.75
1413.92571	674.75
1414.453742	672.25
1414.981718	673.75
1415.50964	683.5
1416.037506	674.0
1416.565316	673.75
1417.093072	668.75
1417.620772	672.75
1418.148416	669.0
1418.676005	672.0
1419.203539	672.75
1419.731018	674.0
1420.258441	672.0
1420.785809	668.25
1421.313122	673.5
1421.840379	670.5
1422.367582	672.25
1422.894728	672.25
1423.42182	671.5
1423.948856	672.5
1424.475837	671.0
1425.002762	671.0
1425.529633	674.5
1426.056448	672.25
1426.583207	672.0
1427.109912	670.75
1427.636561	670.75
1428.163155	672.5
1428.689694	671.0
1429.216177	671.75
1429.742605	669.25
1430.268978	671.0
1430.795296	669.75
1431.321558	670.0
1431.847765	673.0
1432.373917	671.0
1432.900014	672.25
1433.426056	670.5
1433.952042	666.0
1434.477973	669.5
1435.003849	675.0
1435.529669	670.0
1436.055435	667.5
1436.581145	671.0
1437.1068	669.0
1437.632399	669.0
1438.157944	670.75
1438.683433	669.25
1439.208868	668.0
1439.734247	669.75
1440.25957	671.5
1440.784839	668.0
1441.310053	671.25
1441.835211	671.0
1442.360314	670.0
1442.885362	668.5
1443.410355	671.5
1443.935292	670.0
1444.460175	669.0
1444.985002	671.5
1445.509774	668.25
1446.034491	670.25
1446.559153	670.75
1447.08376	672.0
1447.608312	670.0
1448.132808	671.5
1448.65725	669.5
1449.181636	669.5
1449.705967	669.0
1450.230243	671.25
1450.754464	667.5
1451.27863	672.5
1451.802741	671.0
1452.326797	669.5
1452.850797	670.5
1453.374743	671.25
1453.898633	664.5
1454.422468	670.25
1454.946249	668.5
1455.469974	673.25
1455.993644	671.0
1456.517259	668.0
1457.040819	669.0
1457.564324	668.25
1458.087773	671.0
1458.611168	665.5
1459.134508	667.5
1459.657793	670.25
1460.181022	668.25
1460.704197	669.25
1461.227316	672.75
1461.750381	669.75
1462.27339	669.5
1462.796345	675.0
1463.842089	684.25
1464.364878	670.0
1464.887613	669.75
1465.410292	669.5
1465.932916	668.5
1466.455486	667.5
1466.978	668.75
1467.50046	669.25
1468.022864	669.5
1468.545214	670.0
1469.067508	672.0
1469.589748	668.25
1470.111932	670.25
1470.634062	667.5
1471.156136	668.5
1471.678156	669.75
1472.20012	667.25
1472.72203	670.75
1473.243885	670.0
1473.765685	665.5
1474.28743	669.0
1474.80912	670.0
1475.330755	668.75
1475.852335	665.75
1476.37386	669.0
1476.89533	667.0
1477.416745	670.25
1477.938106	667.5
1478.459411	668.75
1478.980662	669.0
1479.501857	667.5
1480.022998	669.75
1480.544084	668.5
1481.065115	666.5
1481.586091	668.25
1482.107012	671.75
1482.627878	666.75
1483.14869	667.75
1483.669446	669.0
1484.190148	667.25
1484.710794	671.0
1485.231386	670.25
1485.751923	670.5
1486.272406	669.75
1486.792833	670.0
1487.313205	670.5
1487.833523	669.0
1488.353786	665.5
1488.873994	668.0
1489.394147	669.25
1489.914245	669.25
1490.434288	667.5
1490.954277	666.0
1491.474211	668.75
1491.99409	667.75
1492.513914	668.0
1493.033683	669.0
1493.553398	670.25
1494.073057	670.5
1494.592662	671.0
1495.112212	669.0
1495.631708	667.0
1496.151148	670.5
1496.670534	670.25
1497.189865	666.0
1497.709141	668.75
1498.228362	669.25
1498.747529	670.5
1499.266641	669.5
1499.785698	678.5
1500.3047	671.75
1500.823648	666.75
1501.34254	670.0
1501.861379	670.0
1502.380162	670.5
1502.89889	672.25
1503.417564	671.75
1503.936183	668.25
1504.454748	669.25
1504.973257	666.25
1505.491712	667.5
1506.010112	670.25
1506.528458	666.75
1507.046748	664.25
1507.564984	667.25
1508.083166	666.25
1508.601292	669.5
1509.119364	668.75
1509.637381	670.0
1510.155344	669.75
1510.673252	679.0
1511.191105	671.5
1511.708903	667.5
1512.226647	672.25
1512.744336	667.75
1513.261971	667.0
1513.77955	670.5
1514.297076	666.75
1514.814546	670.5
1515.331962	664.5
1515.849323	665.5
1516.366629	668.25
1516.883881	667.25
1517.401078	669.0
1517.918221	668.25
1518.435309	669.25
1518.952342	671.75
1519.469321	669.5
1519.986245	667.25
1520.503114	666.5
1521.019929	668.0
1521.536689	670.0
1522.053395	670.0
1522.570046	670.0
1523.086642	671.25
1523.603184	668.75
1524.119671	670.75
1524.636103	670.5
1525.152481	671.0
1525.668805	671.75
1526.185073	685.25
1526.701288	692.75
1527.217447	673.25
1527.733552	669.5
1528.249603	668.0
1528.765599	668.75
1529.28154	667.25
1529.797427	668.5
1530.313259	671.5
1530.829037	668.75
1531.34476	672.25
1531.860429	670.0
1532.376043	667.5
1532.891602	668.75
1533.407107	670.75
1533.922558	669.75
1534.437954	667.0
1534.953295	668.75
1535.468582	669.0
1535.983815	669.75
1536.498993	670.0
1537.014116	668.25
1537.529185	667.0
1538.044199	671.0
1538.559159	669.75
1539.074064	672.75
1539.588915	671.75
1540.103712	669.25
1540.618454	667.0
1541.133141	666.25
1541.647774	670.0
1542.162353	669.25
1542.676877	670.25
1543.191346	670.5
1543.705761	669.0
1544.220122	672.0
1544.734428	669.75
1545.24868	667.5
1545.762877	665.25
1546.27702	671.0
1546.791109	671.5
1547.305143	669.5
1547.819122	668.5
1548.333047	667.75
1548.846918	669.5
1549.360734	670.0
1549.874496	670.0
1550.388204	669.75
1550.901857	668.25
1551.415455	667.75
1551.929	670.5
1552.442489	669.0
1552.955925	665.75
1553.469306	672.75
1553.982632	670.5
1554.495905	670.25
1555.009123	672.75
1555.522286	667.5
1556.035395	669.0
1556.54845	669.25
1557.06145	670.75
1557.574396	667.25
1558.087288	669.5
1558.600125	671.25
1559.112908	671.5
1559.625637	670.25
1560.138311	672.0
1560.650931	673.0
1561.163497	671.0
1561.676008	669.5
1562.188465	671.75
1562.700867	671.5
1563.213216	671.25
1563.725509	668.25
1564.237749	670.25
1564.749934	670.25
1565.262065	670.5
1565.774142	669.75
1566.286164	673.0
1566.798132	674.0
1567.310046	672.75
1567.821906	671.75
1568.333711	669.0
1568.845462	670.75
1569.357158	674.75
1569.868801	669.25
1570.380389	673.75
1570.891922	668.75
1571.403402	671.75
1571.914827	668.75
1572.426198	670.75
1572.937515	667.25
1573.448777	668.5
1573.959985	668.75
1574.471139	672.0
1574.982239	669.75
1575.493285	666.25
1576.004276	671.5
1576.515213	671.25
1577.026096	670.75
1577.536924	671.5
1578.047698	669.25
1578.558419	669.0
1579.069084	670.0
1579.579696	671.25
1580.090254	671.5
1580.600757	670.0
1581.111206	668.0
1581.621601	671.0
1582.131941	673.25
1582.642228	668.5
1583.15246	672.0
1583.662638	669.75
1584.172762	667.5
1584.682832	669.75
1585.192847	669.0
1585.702809	669.5
1586.212716	669.0
1586.722569	669.25
1587.232368	670.25
1587.742113	668.0
1588.251803	672.0
1588.76144	670.25
1589.271022	670.75
1589.78055	672.0
1590.290024	668.25
1590.799444	669.0
1591.30881	667.5
1591.818121	668.5
1592.327379	668.0
