1042.414189	749.7999878
1042.980685	747.7999878
1043.547124	743.4000244
1044.113505	737.5999756
1044.679828	741.0
1045.246093	738.7999878
1045.8123	743.4000244
1046.378449	740.5999756
1046.94454	734.7999878
1047.510573	736.7999878
1048.076548	733.2000122
1048.642465	737.4000244
1049.208325	733.0
1049.774126	733.4000244
1050.339869	734.0
1050.905555	732.7999878
1051.471183	734.4000244
1052.036752	727.0
1052.602264	730.2000122
1053.167718	729.5999756
1053.733114	731.4000244
1054.298452	728.5999756
1054.863733	729.0
1055.428955	729.4000244
1055.994119	729.5999756
1056.559226	729.2000122
1057.124275	724.4000244
1057.689266	727.0
1058.254199	730.2000122
1058.819074	726.7999878
1059.383891	723.5999756
1059.94865	733.0
1060.513352	724.5999756
1061.077996	728.4000244
1061.642582	731.0
1062.20711	729.2000122
1062.77158	729.0
1063.335992	725.5999756
1063.900347	723.7999878
1064.464643	727.7999878
1065.028882	726.5999756
1065.593063	728.4000244
1066.157187	728.5999756
1066.721252	730.0
1067.28526	725.0
1067.84921	728.5999756
1068.413102	724.7999878
1068.976936	725.2000122
1069.540713	725.2000122
1070.104431	729.2000122
1070.668092	723.4000244
1071.231696	724.5999756
1071.795241	723.0
1072.358729	724.7999878
1072.922159	724.7999878
1073.485531	725.2000122
1074.048845	729.0
1074.612102	728.0
1075.175301	723.4000244
1075.738442	724.4000244
1076.301525	722.4000244
1076.864551	725.4000244
1077.427519	726.7999878
1077.990429	720.7999878
1078.553281	726.2000122
1079.116076	721.5999756
1079.678813	723.2000122
1080.241492	726.7999878
1080.804114	719.5999756
1081.366678	728.0
1081.929184	726.0
1082.491633	720.5999756
1083.054024	720.7999878
1083.616357	726.7999878
1084.178632	724.0
1084.74085	722.5999756
1085.30301	726.2000122
1085.865113	725.0
1086.427158	722.0
1086.989145	727.5999756
1087.551074	721.2000122
1088.112946	726.4000244
1088.67476	730.2000122
1089.236517	724.5999756
1089.798216	726.5999756
1090.359857	724.7999878
1090.92144	723.2000122
1091.482966	724.2000122
1092.044435	720.0
1092.605845	727.4000244
1093.167199	726.2000122
1093.728494	719.0
1094.289732	720.7999878
1094.850912	722.0
1095.412035	725.5999756
1095.9731	724.5999756
1096.534107	723.4000244
1097.095057	724.4000244
1097.65595	723.4000244
1098.216784	721.4000244
1098.777561	723.2000122
1099.338281	727.5999756
1099.898943	721.4000244
1100.459547	725.7999878
1101.020094	723.7999878
1101.580584	725.2000122
1102.141015	720.7999878
1102.701389	726.4000244
1103.261706	720.5999756
1103.821965	721.4000244
1104.382167	725.7999878
1104.942311	727.0
1105.502397	724.0
1106.062426	724.7999878
1106.622398	723.0
1107.182312	730.4000244
1107.742168	726.0
1108.301967	720.5999756
1108.861708	722.0
1109.421392	722.4000244
1109.981019	727.2000122
1110.540587	723.0
1111.100099	719.4000244
1111.659553	726.2000122
1112.218949	724.7999878
1112.778288	721.0
1113.33757	723.2000122
1113.896794	722.7999878
1114.45596	721.2000122
1115.015069	718.7999878
1115.574121	723.7999878
1116.133115	723.0
1116.692052	720.4000244
1117.250931	725.4000244
1117.809753	724.4000244
1118.368517	723.4000244
1118.927224	726.2000122
1119.485873	722.2000122
1120.044465	723.4000244
1120.603	718.7999878
1121.161477	722.5999756
1121.719897	719.4000244
1122.278259	721.2000122
1122.836564	724.2000122
1123.394812	726.5999756
1123.953002	722.2000122
1124.511135	721.7999878
1125.06921	723.5999756
1125.627228	718.7999878
1126.185189	726.4000244
1126.743092	722.5999756
1127.300938	725.2000122
1127.858726	718.2000122
1128.416457	726.4000244
1128.974131	726.5999756
1129.531748	723.2000122
1130.089307	724.4000244
1130.646808	726.4000244
1131.204252	724.4000244
1131.761639	725.2000122
1132.318969	723.0
1132.876241	721.4000244
1133.433456	725.5999756
1133.990614	722.4000244
1134.547714	723.4000244
1135.104757	725.5999756
1135.661743	727.5999756
1136.218671	719.4000244
1136.775542	724.0
1137.332356	720.2000122
1137.889112	724.7999878
1138.445811	726.2000122
1139.002453	722.7999878
1139.559037	723.4000244
1140.115565	720.0
1140.672035	722.0
1141.228447	725.2000122
1141.784803	726.5999756
1142.341101	723.7999878
1142.897342	723.5999756
1143.453525	724.5999756
1144.009651	722.5999756
1144.565721	723.7999878
1145.121732	724.5999756
1145.677687	724.2000122
1146.233584	721.7999878
1146.789424	722.2000122
1147.345207	727.5999756
1147.900933	724.7999878
1148.456601	723.4000244
1149.012212	727.5999756
1149.567766	728.0
1150.123263	727.4000244
1150.678702	731.0
1151.234085	742.0
1151.78941	737.2000122
1152.344678	728.4000244
1152.899888	724.4000244
1153.455042	726.4000244
1154.010138	726.2000122
1154.565177	728.7999878
1155.120159	727.4000244
1155.675084	723.2000122
1156.229951	729.2000122
1156.784762	724.2000122
1157.339515	725.0
1157.894211	726.0
1158.44885	725.5999756
1159.003432	725.7999878
1159.557956	729.7999878
1160.112424	719.5999756
1160.666834	724.5999756
1161.221187	723.5999756
1161.775483	730.4000244
1162.329722	722.2000122
1162.883904	724.4000244
1163.438029	724.5999756
1163.992096	726.2000122
1164.546107	724.2000122
1165.10006	724.2000122
1165.653956	731.4000244
1166.207795	720.5999756
1166.761577	725.7999878
1167.315302	727.2000122
1167.86897	731.0
1168.422581	728.4000244
1168.976134	723.5999756
1169.529631	723.4000244
1170.08307	727.4000244
1170.636453	728.0
1171.189778	722.2000122
1171.743046	723.4000244
1172.296257	725.4000244
1172.849412	725.7999878
1173.402509	724.2000122
1173.955549	733.4000244
1174.508532	724.4000244
1175.061458	722.0
1175.614327	722.2000122
1176.167138	727.7999878
1176.719893	726.0
1177.272591	725.7999878
1177.825232	729.0
1178.377816	726.0
1178.930342	725.2000122
1179.482812	725.0
1180.035225	726.0
1180.587581	724.0
1181.139879	729.5999756
1181.692121	723.2000122
1182.244306	729.0
1182.796434	727.4000244
1183.348504	724.4000244
1183.900518	726.4000244
1184.452475	729.5999756
1185.004375	728.5999756
1185.556218	726.0
1186.108004	726.0
1186.659733	724.0
1187.211405	727.7999878
1187.76302	726.4000244
1188.314578	723.0
1188.866079	727.4000244
1189.417523	723.2000122
1189.96891	727.7999878
1190.520241	724.7999878
1191.071514	723.2000122
1191.622731	726.7999878
1192.17389	727.2000122
1192.724993	726.5999756
1193.276039	741.7999878
1193.827027	724.2000122
1194.377959	725.4000244
1194.928834	731.2000122
1195.479653	726.4000244
1196.030414	730.2000122
1196.581118	730.2000122
1197.131766	728.0
1197.682356	729.4000244
1198.23289	729.5999756
1198.783367	725.2000122
1199.333786	723.2000122
1199.88415	728.0
1200.434456	722.2000122
1200.984705	727.0
1201.534898	727.5999756
1202.085033	724.4000244
1202.635112	727.5999756
1203.185134	723.0
1203.735099	728.0
1204.285007	728.0
1204.834859	724.7999878
1205.384653	722.4000244
1205.934391	725.7999878
1206.484072	728.7999878
1207.033696	726.7999878
1207.583263	727.2000122
1208.132774	723.4000244
1208.682228	724.4000244
1209.231624	723.4000244
1209.780965	731.0
1210.330248	730.5999756
1210.879474	726.4000244
1211.428644	729.7999878
1211.977757	730.7999878
1212.526813	725.0
1213.075813	727.5999756
1213.624755	728.2000122
1214.173641	726.0
1214.72247	729.4000244
1215.271242	726.2000122
1215.819958	732.7999878
1216.368617	727.5999756
1216.917219	731.0
1217.465764	728.7999878
1218.014253	731.4000244
1218.562685	724.0
1219.11106	725.4000244
1219.659378	729.0
1220.20764	729.0
1220.755845	727.2000122
1221.303993	729.4000244
1221.852085	724.2000122
1222.400119	731.7999878
1222.948097	729.0
1223.496019	729.2000122
1224.043883	732.7999878
1224.591691	726.2000122
1225.139443	730.4000244
1225.687137	727.0
1226.234775	728.5999756
1226.782357	729.4000244
1227.329881	723.4000244
1227.877349	729.2000122
1228.42476	728.4000244
1228.972115	729.4000244
1229.519413	728.4000244
1230.066654	729.7999878
1230.613839	734.2000122
1231.160967	722.7999878
1231.708038	727.7999878
1232.255053	730.7999878
1232.802011	728.2000122
1233.348912	728.7999878
1233.895757	730.0
1234.442545	729.7999878
1234.989277	729.7999878
1235.535951	726.7999878
1236.08257	734.7999878
1236.629131	729.5999756
1237.175636	728.7999878
1237.722085	730.5999756
1238.268477	733.4000244
1238.814812	728.0
1239.361091	731.5999756
1239.907313	727.4000244
1240.453478	734.2000122
1240.999587	730.2000122
1241.54564	733.0
1242.091636	730.4000244
1242.637575	729.5999756
1243.183457	727.0
1243.729284	728.2000122
1244.275053	732.0
1244.820766	731.5999756
1245.366423	733.4000244
1245.912022	725.5999756
1246.457566	728.7999878
1247.003053	730.4000244
1247.548483	726.7999878
1248.093857	730.5999756
1248.639174	725.4000244
1249.184435	730.7999878
1249.729639	734.4000244
1250.274787	727.7999878
1250.819878	727.2000122
1251.364912	728.4000244
1251.909891	726.2000122
1252.454812	729.2000122
1252.999677	724.5999756
1253.544486	731.5999756
1254.089238	731.5999756
1254.633934	731.0
1255.178573	736.2000122
1255.723156	728.2000122
1256.267682	734.2000122
1256.812152	729.7999878
1257.356565	727.2000122
1257.900922	732.2000122
1258.445223	730.2000122
1258.989467	733.2000122
1259.533654	731.0
1260.077785	741.0
1260.62186	727.2000122
1261.165878	726.5999756
1261.70984	730.7999878
1262.253745	735.4000244
1262.797594	731.4000244
1263.341386	726.5999756
1263.885123	730.5999756
1264.428802	736.4000244
1264.972425	741.2000122
1265.515992	751.4000244
1266.059503	746.5999756
1266.602957	740.5999756
1267.146354	734.7999878
1267.689696	733.0
1268.23298	730.5999756
1268.776209	729.7999878
1269.319381	728.7999878
1269.862497	730.5999756
1270.405556	731.2000122
1270.948559	726.2000122
1271.491506	730.7999878
1272.034396	734.0
1272.57723	734.4000244
1273.120007	729.4000244
1273.662728	728.4000244
1274.205393	727.7999878
1274.748002	734.7999878
1275.290554	729.2000122
1275.83305	733.0
1276.375489	729.5999756
1276.917872	730.0
1277.460199	733.5999756
1278.00247	729.2000122
1278.544684	731.5999756
1279.086842	725.5999756
1279.628943	726.4000244
1280.170989	731.7999878
1280.712978	733.4000244
1281.25491	731.4000244
1281.796787	732.7999878
1282.338607	735.7999878
1282.880371	734.2000122
1283.422078	737.5999756
1283.963729	743.4000244
1284.505324	751.0
1285.046863	796.2000122
1285.588345	938.5999756
1286.129772	1038.800049
1286.671142	865.2000122
1287.212455	767.7999878
1287.753713	749.4000244
1288.294914	736.7999878
1288.836059	734.0
1289.377147	734.4000244
1289.91818	733.2000122
1290.459156	739.0
1291.000076	732.2000122
1291.54094	739.5999756
1292.081747	732.7999878
1292.622499	731.2000122
1293.163194	732.0
1293.703833	733.5999756
1294.244415	732.5999756
1294.784942	731.4000244
1295.325412	730.2000122
1295.865826	735.0
1296.406184	731.4000244
1296.946486	725.7999878
1297.486731	730.7999878
1298.026921	731.7999878
1298.567054	731.5999756
1299.107131	729.2000122
1299.647152	730.0
1300.187116	730.5999756
1300.727025	732.5999756
1301.266877	733.0
1301.806673	737.7999878
1302.346413	729.7999878
1302.886097	736.4000244
1303.425725	730.7999878
1303.965297	730.7999878
1304.504812	728.2000122
1305.044272	732.7999878
1305.583675	728.7999878
1306.123022	731.4000244
1306.662313	729.0
1307.201548	734.4000244
1307.740727	730.4000244
1308.279849	732.4000244
1308.818916	733.4000244
1309.357926	730.5999756
1309.896881	730.5999756
1310.435779	730.7999878
1310.974621	732.0
1311.513407	731.7999878
1312.052137	732.5999756
1312.590811	729.2000122
1313.129429	733.5999756
1313.667991	732.0
1314.206497	731.7999878
1314.744946	732.7999878
1315.28334	728.7999878
1315.821678	734.0
1316.359959	733.4000244
1316.898184	733.4000244
1317.436354	731.0
1317.974467	728.5999756
1318.512525	731.4000244
1319.050526	732.5999756
1319.588471	732.0
1320.12636	734.4000244
1320.664194	734.4000244
1321.201971	735.4000244
1321.739692	733.4000244
1322.277357	732.2000122
1322.814967	730.0
1323.35252	730.4000244
1323.890017	737.5999756
1324.427458	731.7999878
1324.964843	732.0
1325.502173	733.4000244
1326.039446	736.0
1326.576663	734.2000122
1327.113824	727.0
1327.65093	733.5999756
1328.187979	730.5999756
1328.724972	732.2000122
1329.26191	735.5999756
1329.798791	734.5999756
1330.335617	732.0
1330.872386	732.0
1331.4091	739.0
1331.945758	734.7999878
1332.48236	733.7999878
1333.018905	725.7999878
1333.555395	726.5999756
1334.091829	734.0
1334.628207	733.2000122
1335.164529	733.7999878
1335.700796	734.2000122
1336.237006	734.4000244
1336.77316	732.0
1337.309259	736.2000122
1337.845301	735.5999756
1338.381288	735.2000122
1338.917219	733.4000244
1339.453094	735.2000122
1339.988913	733.4000244
1340.524676	737.2000122
1341.060383	732.5999756
1341.596034	736.5999756
1342.13163	734.7999878
1342.66717	732.7999878
1343.202653	730.0
1343.738081	731.0
1344.273453	729.5999756
1344.80877	732.0
1345.34403	735.0
1345.879235	731.2000122
1346.414383	735.0
1346.949476	730.7999878
1347.484513	729.2000122
1348.019494	737.5999756
1348.55442	728.2000122
1349.089289	734.7999878
1349.624103	733.7999878
1350.158861	732.0
1350.693563	740.2000122
1351.228209	737.2000122
1351.7628	735.4000244
1352.297334	729.5999756
1352.831813	740.4000244
1353.366236	736.2000122
1353.900604	738.4000244
1354.434915	730.7999878
1354.969171	732.4000244
1355.503371	735.0
1356.037515	734.2000122
1356.571604	726.7999878
1357.105636	731.2000122
1357.639613	733.5999756
1358.173535	731.5999756
1358.7074	733.0
1359.24121	736.2000122
1359.774964	733.4000244
1360.308662	730.5999756
1360.842304	731.4000244
1361.375891	736.5999756
1362.976317	735.2000122
1363.50968	733.2000122
1364.042989	732.4000244
1364.576241	736.0
1365.109438	731.0
1365.642579	733.4000244
1366.175664	732.0
1366.708693	735.2000122
1367.241667	738.5999756
1367.774585	735.4000244
1368.307448	734.4000244
1368.840255	735.7999878
1369.373006	735.4000244
1369.905701	738.2000122
1370.438341	740.4000244
1370.970925	745.5999756
1371.503454	735.5999756
1372.035926	730.0
1372.568344	729.4000244
1373.100705	736.5999756
1373.633011	733.7999878
1374.165261	734.7999878
1374.697456	739.4000244
1375.229595	738.7999878
1375.761678	734.0
1376.293705	733.5999756
1376.825677	736.0
1377.357594	738.2000122
1377.889455	739.0
1378.42126	733.2000122
1378.953009	737.5999756
1379.484703	731.2000122
1380.016342	737.0
1380.547924	735.0
1381.079452	736.7999878
1381.610923	732.0
1382.142339	741.7999878
1382.673699	735.4000244
1383.205004	736.7999878
1383.736253	737.2000122
1384.267447	738.7999878
1384.798585	738.5999756
1385.329668	738.2000122
1385.860695	734.5999756
1386.391666	745.4000244
1386.922582	748.7999878
1387.453442	756.0
1387.984247	770.4000244
1388.514996	872.5999756
1389.04569	1200.199951
1389.576328	1149.800049
1390.10691	833.2000122
1390.637437	760.7999878
1391.167909	749.5999756
1391.698325	745.0
1392.228685	741.5999756
1392.75899	739.0
1393.28924	736.4000244
1393.819434	746.5999756
1394.349572	735.0
1394.879655	733.7999878
1395.409683	737.7999878
1395.939655	737.4000244
1396.469571	730.0
1396.999432	737.5999756
1397.529237	737.2000122
1398.058987	734.0
1398.588682	736.5999756
1399.118321	735.5999756
1399.647905	741.2000122
1400.177433	741.0
1400.706906	730.5999756
1401.236323	733.7999878
1401.765685	733.5999756
1402.294991	734.2000122
1402.824242	738.5999756
1403.353437	731.7999878
1403.882577	734.7999878
1404.411662	738.4000244
1404.940691	738.0
1405.469665	733.0
1405.998583	736.5999756
1406.527446	736.7999878
1407.056253	732.0
1407.585005	734.4000244
1408.113702	739.5999756
1408.642343	740.0
1409.170929	741.7999878
1409.69946	749.5999756
1410.227935	765.2000122
1410.756354	772.0
1411.284719	754.5999756
1411.813028	744.2000122
1412.341281	735.2000122
1412.869479	738.5999756
1413.397622	737.2000122
1413.92571	737.2000122
1414.453742	734.5999756
1414.981718	737.0
1415.50964	744.4000244
1416.037506	734.5999756
1416.565316	736.2000122
1417.093072	733.0
1417.620772	732.4000244
1418.148416	736.2000122
1418.676005	736.2000122
1419.203539	736.0
1419.731018	734.0
1420.258441	737.0
1420.785809	739.2000122
1421.313122	735.0
1421.840379	736.2000122
1422.367582	733.4000244
1422.894728	735.7999878
1423.42182	733.0
1423.948856	738.4000244
1424.475837	740.2000122
1425.002762	736.5999756
1425.529633	736.2000122
1426.056448	739.7999878
1426.583207	739.5999756
1427.109912	738.5999756
1427.636561	738.7999878
1428.163155	737.5999756
1428.689694	737.4000244
1429.216177	739.7999878
1429.742605	740.2000122
1430.268978	735.4000244
1430.795296	738.4000244
1431.321558	736.2000122
1431.847765	732.2000122
1432.373917	733.7999878
1432.900014	734.4000244
1433.426056	739.0
1433.952042	737.4000244
1434.477973	737.0
1435.003849	737.0
1435.529669	733.7999878
1436.055435	732.5999756
1436.581145	732.5999756
1437.1068	738.5999756
1437.632399	734.2000122
1438.157944	734.2000122
1438.683433	734.7999878
1439.208868	740.2000122
1439.734247	739.0
1440.25957	734.5999756
1440.784839	739.7999878
1441.310053	738.4000244
1441.835211	738.4000244
1442.360314	737.5999756
1442.885362	733.4000244
1443.410355	736.5999756
1443.935292	733.4000244
1444.460175	734.7999878
1444.985002	737.7999878
1445.509774	737.0
1446.034491	734.5999756
1446.559153	733.0
1447.08376	739.7999878
1447.608312	737.2000122
1448.132808	738.0
1448.65725	738.0
1449.181636	735.4000244
1449.705967	736.0
1450.230243	739.7999878
1450.754464	733.5999756
1451.27863	734.4000244
1451.802741	742.4000244
1452.326797	734.5999756
1452.850797	738.7999878
1453.374743	736.4000244
1453.898633	739.4000244
1454.422468	736.4000244
1454.946249	735.0
1455.469974	738.5999756
1455.993644	735.4000244
1456.517259	731.0
1457.040819	739.0
1457.564324	733.0
1458.087773	736.7999878
1458.611168	738.5999756
1459.134508	738.7999878
1459.657793	734.5999756
1460.181022	735.5999756
1460.704197	736.0
1461.227316	743.0
1461.750381	735.0
1462.27339	736.2000122
1462.796345	738.7999878
1463.319244	745.2000122
1463.842089	738.4000244
1464.364878	739.2000122
1464.887613	737.5999756
1465.410292	737.0
1465.932916	732.5999756
1466.455486	737.0
1466.978	739.0
1467.50046	734.7999878
1468.022864	737.7999878
1468.545214	733.2000122
1469.067508	734.5999756
1469.589748	733.0
1470.111932	738.7999878
1470.634062	739.0
1471.156136	734.0
1471.678156	736.7999878
1472.20012	737.2000122
1472.72203	734.5999756
1473.243885	740.2000122
1473.765685	739.7999878
1474.28743	734.4000244
1474.80912	734.2000122
1475.330755	736.2000122
1475.852335	738.4000244
1476.37386	735.4000244
1476.89533	737.2000122
1477.416745	734.4000244
1477.938106	732.0
1478.459411	736.5999756
1478.980662	737.7999878
1479.501857	738.0
1480.022998	735.2000122
1480.544084	734.0
1481.065115	736.7999878
1481.586091	732.7999878
1482.107012	740.0
1482.627878	733.0
1483.14869	735.0
1483.669446	736.0
1484.190148	742.7999878
1484.710794	738.4000244
1485.231386	732.5999756
1485.751923	729.2000122
1486.272406	734.2000122
1486.792833	739.5999756
1487.313205	735.7999878
1487.833523	732.5999756
1488.353786	729.5999756
1488.873994	739.5999756
1489.394147	737.2000122
1489.914245	735.0
1490.434288	738.5999756
1490.954277	736.5999756
1491.474211	737.4000244
1491.99409	737.5999756
1492.513914	733.7999878
1493.033683	736.0
1493.553398	738.2000122
1494.073057	741.4000244
1494.592662	734.4000244
1495.112212	735.0
1495.631708	738.5999756
1496.151148	734.7999878
1496.670534	737.4000244
1497.189865	735.4000244
1497.709141	742.2000122
1498.228362	736.7999878
1498.747529	741.7999878
1499.266641	734.4000244
1499.785698	749.2000122
1500.3047	738.7999878
1500.823648	734.2000122
1501.34254	738.2000122
1501.861379	731.5999756
1502.380162	735.2000122
1502.89889	735.7999878
1503.417564	737.2000122
1503.936183	735.7999878
1504.454748	738.5999756
1504.973257	736.7999878
1505.491712	734.5999756
1506.010112	735.2000122
1506.528458	735.0
1507.046748	739.4000244
1507.564984	740.5999756
1508.083166	735.0
1508.601292	733.4000244
1509.119364	733.7999878
1509.637381	736.4000244
1510.155344	737.2000122
1510.673252	745.0
1511.191105	731.0
1511.708903	736.2000122
1512.226647	738.4000244
1512.744336	735.5999756
1513.261971	735.2000122
1513.77955	737.7999878
1514.297076	734.2000122
1514.814546	738.4000244
1515.331962	736.5999756
1515.849323	733.7999878
1516.366629	735.4000244
1516.883881	738.5999756
1517.401078	738.5999756
1517.918221	740.0
1518.435309	735.4000244
1518.952342	737.4000244
1519.469321	735.0
1519.986245	739.2000122
1520.503114	740.4000244
1521.019929	735.0
1521.536689	743.0
1522.053395	735.7999878
1522.570046	744.7999878
1523.086642	735.7999878
1523.603184	735.5999756
1524.119671	739.2000122
1524.636103	735.4000244
1525.152481	737.5999756
1525.668805	733.2000122
1526.185073	741.0
1526.701288	737.5999756
1527.217447	737.4000244
1527.733552	735.4000244
1528.249603	735.4000244
1528.765599	741.2000122
1529.28154	738.0
1529.797427	736.5999756
1530.313259	740.7999878
1530.829037	736.4000244
1531.34476	740.0
1531.860429	735.7999878
1532.376043	734.5999756
1532.891602	740.5999756
1533.407107	736.2000122
1533.922558	741.5999756
1534.437954	738.0
1534.953295	737.4000244
1535.468582	736.7999878
1535.983815	740.7999878
1536.498993	737.0
1537.014116	735.7999878
1537.529185	734.7999878
1538.044199	734.5999756
1538.559159	732.4000244
1539.074064	740.5999756
1539.588915	735.0
1540.103712	744.2000122
1540.618454	740.5999756
1541.133141	733.5999756
1541.647774	735.4000244
1542.162353	734.0
1542.676877	742.2000122
1543.191346	734.0
1543.705761	737.5999756
1544.220122	742.5999756
1544.734428	737.2000122
1545.24868	737.0
1545.762877	733.5999756
1546.27702	738.0
1546.791109	740.2000122
1547.305143	736.5999756
1547.819122	737.7999878
1548.333047	737.4000244
1548.846918	734.4000244
1549.360734	736.7999878
1549.874496	738.2000122
1550.388204	739.7999878
1550.901857	740.0
1551.415455	738.5999756
1551.929	743.2000122
1552.442489	740.0
1552.955925	735.7999878
1553.469306	736.4000244
1553.982632	738.2000122
1554.495905	739.0
1555.009123	739.5999756
1555.522286	744.2000122
1556.035395	736.4000244
1556.54845	737.5999756
1557.06145	739.5999756
1557.574396	736.7999878
1558.087288	739.7999878
1558.600125	737.0
1559.112908	736.7999878
1559.625637	739.2000122
1560.138311	737.2000122
1560.650931	741.0
1561.163497	736.7999878
1561.676008	734.4000244
1562.188465	741.0
1562.700867	738.4000244
1563.213216	739.4000244
1563.725509	740.5999756
1564.237749	738.0
1564.749934	740.4000244
1565.262065	740.7999878
1565.774142	733.4000244
1566.286164	742.5999756
1566.798132	743.2000122
1567.310046	738.7999878
1567.821906	738.4000244
1568.333711	740.4000244
1568.845462	740.4000244
1569.357158	740.4000244
1569.868801	743.7999878
1570.380389	745.7999878
1570.891922	738.4000244
1571.403402	743.0
1571.914827	741.0
1572.426198	735.4000244
1572.937515	739.4000244
1573.448777	740.0
1573.959985	743.2000122
1574.471139	738.5999756
1574.982239	740.0
1575.493285	739.0
1576.004276	743.0
1576.515213	739.0
1577.026096	736.2000122
1577.536924	736.4000244
1578.047698	735.0
1578.558419	745.2000122
1579.069084	738.5999756
1579.579696	739.2000122
1580.090254	739.5999756
1580.600757	739.5999756
1581.111206	736.7999878
1581.621601	736.7999878
1582.131941	743.4000244
1582.642228	738.5999756
1583.15246	744.7999878
1583.662638	738.0
1584.172762	743.0
1584.682832	737.2000122
1585.192847	743.5999756
1585.702809	737.0
1586.212716	734.5999756
1586.722569	745.7999878
1587.232368	739.4000244
1587.742113	737.0
1588.251803	743.7999878
1588.76144	740.4000244
1589.271022	734.0
1589.78055	742.7999878
1590.290024	736.0
1590.799444	739.7999878
1591.30881	736.0
1591.818121	743.4000244
1592.327379	732.2000122
