1042.452273	822.2000122
1043.018714	819.0
1043.585098	817.5999756
1044.151424	827.4000244
1044.717692	819.5999756
1045.283903	823.0
1045.850056	816.5999756
1046.416151	822.2000122
1046.982188	813.5999756
1047.548167	811.7999878
1048.114089	818.5999756
1048.679953	814.0
1049.24576	808.2000122
1049.811509	813.7999878
1050.3772	815.2000122
1050.942833	815.0
1051.508408	808.2000122
1052.073926	808.5999756
1052.639387	809.2000122
1053.204789	817.0
1053.770134	812.2000122
1054.335421	811.4000244
1054.900651	809.5999756
1055.465823	812.7999878
1056.030937	814.5999756
1056.595993	815.2000122
1057.160992	806.0
1057.725934	808.4000244
1058.290817	810.4000244
1058.855643	807.5999756
1059.420411	814.5999756
1059.985122	807.2000122
1060.549775	809.2000122
1061.114371	812.2000122
1061.678908	809.7999878
1062.243389	803.7999878
1062.807811	806.4000244
1063.372176	811.4000244
1063.936483	809.4000244
1064.500733	812.2000122
1065.064925	803.2000122
1065.62906	814.2000122
1066.193137	804.7999878
1066.757156	805.2000122
1067.321118	807.7999878
1067.885022	802.2000122
1068.448869	805.7999878
1069.012658	804.4000244
1069.57639	810.4000244
1070.140063	812.5999756
1070.70368	809.2000122
1071.267239	807.2000122
1071.83074	799.5999756
1072.394184	803.0
1072.95757	809.0
1073.520899	814.0
1074.08417	807.4000244
1074.647383	806.5999756
1075.21054	808.5999756
1075.773638	806.2000122
1076.336679	811.5999756
1076.899663	797.0
1077.462589	803.7999878
1078.025457	803.5999756
1078.588268	806.4000244
1079.151022	803.5999756
1079.713718	809.2000122
1080.276356	800.7999878
1080.838937	810.0
1081.401461	799.0
1081.963927	798.2000122
1082.526336	807.5999756
1083.088687	810.5999756
1083.650981	796.7999878
1084.213217	803.7999878
1084.775396	804.5999756
1085.337517	801.2000122
1085.899581	805.0
1086.461587	802.5999756
1087.023536	808.7999878
1087.585428	798.2000122
1088.147262	798.0
1088.709039	805.7999878
1089.270758	803.2000122
1089.83242	801.5999756
1090.394024	796.2000122
1090.955571	800.7999878
1091.517061	794.5999756
1092.078493	802.2000122
1092.639868	796.7999878
1093.201185	800.2000122
1093.762445	797.7999878
1094.323648	806.5999756
1094.884793	795.2000122
1095.445881	802.4000244
1096.006911	805.4000244
1096.567884	796.5999756
1097.1288	801.7999878
1097.689659	801.4000244
1098.25046	796.2000122
1098.811203	802.5999756
1099.37189	798.7999878
1099.932518	801.7999878
1100.49309	801.4000244
1101.053604	806.2000122
1101.614061	797.0
1102.174461	794.0
1102.734803	800.0
1103.295088	799.7999878
1103.855316	795.0
1104.415486	799.2000122
1104.975599	795.4000244
1105.535655	800.4000244
1106.095653	798.2000122
1106.655594	797.5999756
1107.215478	805.7999878
1107.775305	787.2000122
1108.335074	795.5999756
1108.894786	800.5999756
1109.45444	801.7999878
1110.014038	807.7999878
1110.573578	800.0
1111.133061	801.5999756
1111.692486	802.4000244
1112.251854	795.2000122
1112.811165	798.7999878
1113.370419	801.2000122
1113.929616	798.4000244
1114.488755	799.7999878
1115.047837	799.0
1115.606862	799.4000244
1116.16583	797.4000244
1116.72474	798.4000244
1117.283593	796.2000122
1117.842389	793.2000122
1118.401128	792.7999878
1118.959809	796.4000244
1119.518433	795.5999756
1120.077	797.7999878
1120.63551	792.5999756
1121.193963	794.7999878
1121.752358	795.4000244
1122.310697	793.2000122
1122.868978	793.2000122
1123.427202	797.2000122
1123.985368	798.4000244
1124.543478	799.4000244
1125.10153	795.2000122
1125.659526	799.2000122
1126.217464	800.5999756
1126.775345	801.0
1127.333168	809.4000244
1127.890935	806.4000244
1128.448644	807.4000244
1129.006297	806.5999756
1129.563892	808.2000122
1130.12143	809.5999756
1130.678911	803.0
1131.236335	802.7999878
1131.793701	798.5999756
1132.351011	793.7999878
1132.908263	791.4000244
1133.465458	791.5999756
1134.022597	796.7999878
1134.579678	799.2000122
1135.136702	793.4000244
1135.693669	792.5999756
1136.250578	790.7999878
1136.807431	799.5999756
1137.364227	796.2000122
1137.920965	790.0
1138.477647	798.0
1139.034271	787.7999878
1139.590839	796.4000244
1140.147349	789.7999878
1140.703802	785.7999878
1141.260198	789.0
1141.816537	785.7999878
1142.37282	792.5999756
1142.929045	791.7999878
1143.485213	798.7999878
1144.041323	793.5999756
1144.597377	788.2000122
1145.153374	790.2000122
1145.709314	787.4000244
1146.265197	790.4000244
1146.821023	790.4000244
1147.376792	795.2000122
1147.932503	796.4000244
1148.488158	788.2000122
1149.043756	792.7999878
1149.599297	784.7999878
1150.154781	793.5999756
1150.710207	808.4000244
1151.265577	809.7999878
1151.82089	792.4000244
1152.376146	795.7999878
1152.931345	793.2000122
1153.486487	791.0
1154.041572	796.0
1154.5966	797.0
1155.151571	792.5999756
1155.706485	795.7999878
1156.261342	793.2000122
1156.816142	790.0
1157.370885	799.7999878
1157.925572	799.0
1158.480201	797.0
1159.034774	798.4000244
1159.589289	803.7999878
1160.143748	803.7999878
1160.698149	802.5999756
1161.252494	798.5999756
1161.806782	797.5999756
1162.361013	795.5999756
1162.915187	789.2000122
1163.469304	790.4000244
1164.023364	790.2000122
1164.577368	789.2000122
1165.131314	787.7999878
1165.685204	789.7999878
1166.239036	793.4000244
1166.792812	790.0
1167.346531	792.7999878
1167.900193	788.4000244
1168.453798	786.0
1169.007347	785.5999756
1169.560838	786.5999756
1170.114273	787.5999756
1170.66765	787.4000244
1171.220971	783.2000122
1171.774235	785.7999878
1172.327443	779.7999878
1172.880593	788.7999878
1173.433687	786.4000244
1173.986723	786.2000122
1174.539703	788.7999878
1175.092626	789.7999878
1175.645493	788.4000244
1176.198302	786.4000244
1176.751055	784.4000244
1177.303751	793.4000244
1177.85639	786.2000122
1178.408972	787.2000122
1178.961498	792.5999756
1179.513966	788.7999878
1180.066378	792.7999878
1180.618733	788.4000244
1181.171032	787.2000122
1181.723273	784.7999878
1182.275458	782.7999878
1182.827586	789.4000244
1183.379657	781.4000244
1183.931672	785.2000122
1184.48363	792.5999756
1185.035531	782.4000244
1185.587375	780.7999878
1186.139162	786.4000244
1186.690893	782.0
1187.242567	783.7999878
1187.794184	782.5999756
1188.345745	782.7999878
1188.897249	791.7999878
1189.448696	785.0
1190.000086	786.2000122
1190.55142	784.2000122
1191.102697	785.0
1191.653918	783.0
1192.205081	780.0
1192.756188	775.7999878
1193.307238	799.5999756
1193.858232	786.7999878
1194.409169	787.7999878
1194.960049	784.5999756
1195.510872	786.5999756
1196.061639	783.2000122
1196.612349	782.5999756
1197.163003	788.7999878
1197.713599	780.2000122
1198.264139	781.5999756
1198.814623	777.4000244
1199.36505	778.0
1199.91542	781.4000244
1200.465734	777.0
1201.01599	777.0
1201.566191	786.7999878
1202.116334	786.5999756
1202.666421	783.5999756
1203.216452	783.0
1203.766425	779.0
1204.316343	779.4000244
1204.866203	785.4000244
1205.416007	784.7999878
1205.965754	788.2000122
1206.515445	784.0
1207.065079	783.2000122
1207.614657	784.5999756
1208.164177	778.5999756
1208.713642	783.0
1209.26305	780.0
1209.812401	783.0
1210.361695	777.4000244
1210.910933	786.0
1211.460115	780.2000122
1212.00924	780.7999878
1212.558308	783.2000122
1213.10732	778.0
1213.656275	782.7999878
1214.205174	780.4000244
1214.754016	779.5999756
1215.302801	773.2000122
1215.85153	776.2000122
1216.400203	780.0
1216.948819	781.4000244
1217.497378	775.4000244
1218.045881	774.2000122
1218.594327	776.0
1219.142717	779.4000244
1219.691051	774.2000122
1220.239327	781.7999878
1220.787548	774.7999878
1221.335712	776.0
1221.883819	780.2000122
1222.43187	773.2000122
1222.979864	781.0
1223.527802	781.7999878
1224.075683	781.5999756
1224.623508	776.7999878
1225.171277	777.4000244
1225.718989	784.2000122
1226.266644	776.2000122
1226.814243	780.7999878
1227.361786	778.7999878
1227.909272	776.7999878
1228.456702	775.4000244
1229.004075	777.5999756
1229.551392	770.4000244
1230.098652	779.7999878
1230.645856	777.2000122
1231.193003	778.4000244
1231.740094	780.2000122
1232.287129	777.0
1232.834107	783.0
1233.381029	779.7999878
1233.927894	768.2000122
1234.474703	776.2000122
1235.021455	777.7999878
1235.568151	778.7999878
1236.114791	782.7999878
1236.661374	777.2000122
1237.207901	774.7999878
1237.754372	774.2000122
1238.300786	775.4000244
1238.847144	778.5999756
1239.393445	776.5999756
1239.93969	774.4000244
1240.485879	767.4000244
1241.032011	770.7999878
1241.578087	773.2000122
1242.124106	773.2000122
1242.67007	772.2000122
1243.215976	768.7999878
1243.761827	778.5999756
1244.307621	770.7999878
1244.853359	775.7999878
1245.39904	764.5999756
1245.944665	774.2000122
1246.490234	769.2000122
1247.035746	774.4000244
1247.581203	765.7999878
1248.126602	777.0
1248.671946	771.2000122
1249.217233	770.7999878
1249.762464	775.5999756
1250.307638	774.4000244
1250.852757	775.4000244
1251.397819	773.0
1251.942824	774.2000122
1252.487774	776.4000244
1253.032667	775.2000122
1253.577503	765.2000122
1254.122284	770.2000122
1254.667008	769.0
1255.211676	778.2000122
1255.756288	774.7999878
1256.300843	771.4000244
1256.845342	774.4000244
1257.389785	770.4000244
1257.934172	773.2000122
1258.478502	772.5999756
1259.022776	776.2000122
1259.566994	778.2000122
1260.111156	785.5999756
1260.655261	769.0
1261.199311	770.4000244
1261.743304	772.0
1262.28724	768.5999756
1262.831121	775.7999878
1263.374945	775.5999756
1263.918713	775.0
1264.462425	775.5999756
1265.006081	786.7999878
1265.54968	785.7999878
1266.093223	773.7999878
1266.636711	767.4000244
1267.180141	766.4000244
1267.723516	770.0
1268.266835	769.5999756
1268.810097	776.4000244
1269.353303	769.4000244
1269.896453	769.2000122
1270.439547	772.4000244
1270.982584	765.4000244
1271.525566	770.7999878
1272.068491	768.4000244
1272.61136	772.5999756
1273.154173	768.2000122
1273.69693	770.4000244
1274.239631	773.7999878
1274.782275	772.2000122
1275.324864	772.2000122
1275.867396	767.4000244
1276.409872	768.7999878
1276.952292	763.4000244
1277.494656	768.7999878
1278.036964	766.5999756
1278.579215	768.5999756
1279.121411	770.7999878
1279.66355	770.5999756
1280.205634	772.5999756
1280.747661	769.7999878
1281.289632	767.2000122
1281.831547	771.4000244
1282.373406	772.0
1282.915209	767.7999878
1283.456955	775.7999878
1283.998646	786.2000122
1284.540281	797.5999756
1285.081859	875.5999756
1285.623381	943.5999756
1286.164848	852.7999878
1286.706258	790.7999878
1287.247612	773.7999878
1287.788911	777.2000122
1288.330153	768.4000244
1288.871339	767.4000244
1289.412469	775.2000122
1289.953543	775.5999756
1290.494561	765.4000244
1291.035523	763.5999756
1291.576428	774.0
1292.117278	765.5999756
1292.658072	767.4000244
1293.19881	763.2000122
1293.739492	768.7999878
1294.280118	767.0
1294.820687	769.5999756
1295.361201	769.5999756
1295.901659	772.0
1296.442061	767.5999756
1296.982406	764.4000244
1297.522696	761.0
1298.06293	767.2000122
1298.603108	762.5999756
1299.143229	766.7999878
1299.683295	767.0
1300.223305	764.0
1300.763259	762.0
1301.303157	763.7999878
1301.842999	762.0
1302.382785	764.4000244
1302.922515	762.5999756
1303.462189	764.0
1304.001807	766.2000122
1304.541369	765.7999878
1305.080875	770.4000244
1305.620326	760.5999756
1306.15972	768.4000244
1306.699058	763.7999878
1307.238341	763.5999756
1307.777567	762.4000244
1308.316738	764.7999878
1308.855853	767.5999756
1309.394912	764.4000244
1309.933915	761.4000244
1310.472862	759.2000122
1311.011753	768.2000122
1311.550588	764.5999756
1312.089367	768.7999878
1312.62809	766.4000244
1313.166758	767.4000244
1313.70537	762.2000122
1314.243925	763.7999878
1314.782425	758.7999878
1315.320869	758.4000244
1315.859257	765.2000122
1316.397589	766.0
1316.935866	763.7999878
1317.474086	763.7999878
1318.012251	767.7999878
1318.55036	762.0
1319.088413	759.7999878
1319.62641	759.4000244
1320.164351	756.7999878
1320.702236	757.4000244
1321.240066	761.0
1321.777839	762.2000122
1322.315557	762.7999878
1322.853219	765.0
1323.390826	761.5999756
1323.928376	768.5999756
1324.465871	762.7999878
1325.003309	759.2000122
1325.540692	766.5999756
1326.07802	764.7999878
1326.615291	761.4000244
1327.152506	759.7999878
1327.689666	757.7999878
1328.22677	761.5999756
1328.763818	762.4000244
1329.300811	758.5999756
1329.837747	762.5999756
1330.374628	765.4000244
1330.911453	763.0
1331.448222	760.7999878
1331.984936	762.5999756
1332.521594	757.5999756
1333.058196	762.0
1333.594742	761.2000122
1334.131232	757.7999878
1334.667667	763.2000122
1335.204046	760.7999878
1335.740369	757.2000122
1336.276637	764.2000122
1336.812848	757.5999756
1337.349004	761.2000122
1337.885105	760.7999878
1338.421149	758.4000244
1338.957138	761.2000122
1339.493071	755.5999756
1340.028949	764.0
1340.56477	761.5999756
1341.100536	755.0
1341.636246	757.4000244
1342.171901	756.0
1342.7075	761.5999756
1343.243043	757.0
1343.77853	764.0
1344.313962	759.7999878
1344.849338	756.5999756
1345.384659	759.7999878
1345.919923	756.5999756
1346.455133	758.4000244
1346.990286	765.0
1347.525384	756.5999756
1348.060426	758.7999878
1348.595412	760.7999878
1349.130343	753.0
1349.665218	753.5999756
1350.200037	763.4000244
1350.734801	758.5999756
1351.269509	756.0
1351.804162	755.5999756
1352.338758	755.7999878
1352.8733	753.7999878
1353.407785	755.7999878
1353.942215	754.7999878
1354.476589	757.2000122
1355.010908	758.5999756
1355.545171	751.5999756
1356.079379	759.4000244
1356.61353	757.2000122
1357.147627	762.2000122
1357.681667	756.4000244
1358.215652	756.0
1358.749582	760.2000122
1359.283456	758.0
1359.817274	752.7999878
1360.351037	757.0
1360.884744	756.5999756
1361.418395	762.4000244
1361.951991	761.4000244
1362.485531	757.5999756
1363.019016	762.7999878
1363.552445	760.0
1364.085819	762.0
1364.619137	758.7999878
1365.1524	755.0
1365.685607	757.4000244
1366.218758	762.4000244
1366.751854	758.7999878
1367.284894	757.7999878
1367.817879	758.0
1368.350808	752.4000244
1368.883682	756.2000122
1369.4165	760.7999878
1369.949263	758.7999878
1370.48197	773.0
1371.014622	754.4000244
1371.547218	755.5999756
1372.079758	753.4000244
1372.612244	760.5999756
1373.144673	753.5999756
1373.677047	753.7999878
1374.209366	755.7999878
1374.741629	755.7999878
1375.273836	756.4000244
1375.805989	758.4000244
1376.338085	755.7999878
1376.870126	754.7999878
1377.402112	759.7999878
1377.934042	767.0
1379.5295	758.5999756
1380.061208	757.2000122
1380.592861	754.2000122
1381.124459	756.0
1381.656	751.5999756
1382.187487	754.5999756
1382.718918	748.2000122
1383.250294	761.2000122
1383.781614	750.2000122
1384.312879	760.0
1384.844088	755.0
1385.375242	759.5999756
1385.90634	759.0
1386.437383	761.4000244
1386.968371	767.5999756
1387.499303	783.4000244
1388.03018	818.2000122
1388.561001	994.5999756
1389.091767	1038.599976
1389.622478	835.4000244
1390.153133	776.4000244
1390.683733	766.2000122
1391.214277	763.0
1391.744766	757.0
1392.2752	759.0
1392.805578	751.7999878
1393.335901	755.5999756
1393.866168	759.4000244
1394.396381	757.5999756
1394.926537	750.0
1395.456639	755.2000122
1395.986685	752.0
1396.516675	747.4000244
1397.046611	750.5999756
1397.576491	753.2000122
1398.106315	756.4000244
1398.636084	757.0
1399.165798	759.5999756
1399.695457	750.5999756
1400.22506	752.5999756
1400.754608	745.7999878
1401.284101	749.5999756
1401.813538	753.5999756
1402.34292	752.4000244
1402.872247	756.0
1403.401518	752.7999878
1403.930734	755.4000244
1404.459895	748.7999878
1404.989	751.5999756
1405.51805	749.5999756
1406.047045	749.4000244
1406.575984	751.7999878
1407.104869	752.0
1407.633697	753.7999878
1408.162471	756.5999756
1408.691189	754.2000122
1409.219852	758.5999756
1409.74846	765.2000122
1410.277013	771.5999756
1410.80551	766.4000244
1411.333952	759.5999756
1411.862339	757.2000122
1412.39067	752.4000244
1412.918946	751.4000244
1413.447167	750.7999878
1413.975333	758.5999756
1414.503444	752.5999756
1415.031499	754.2000122
1415.559499	757.5999756
1416.087444	745.7999878
1416.615333	752.0
1417.143167	752.4000244
1417.670947	751.4000244
1418.19867	749.2000122
1418.726339	748.2000122
1419.253952	748.0
1419.781511	751.7999878
1420.309014	747.2000122
1420.836461	750.5999756
1421.363854	754.2000122
1421.891191	750.0
1422.418474	745.7999878
1422.945701	749.7999878
1423.472872	749.2000122
1423.999989	752.0
1424.52705	751.5999756
1425.054057	754.0
1425.581008	744.5999756
1426.107904	753.0
1426.634745	742.4000244
1427.16153	749.2000122
1427.688261	751.4000244
1428.214936	751.2000122
1428.741556	749.0
1429.268121	750.0
1429.794631	754.2000122
1430.321085	750.2000122
1430.847485	750.5999756
1431.373829	750.0
1431.900118	750.7999878
1432.426353	751.4000244
1432.952532	744.5999756
1433.478655	749.2000122
1434.004724	746.2000122
1434.530738	748.4000244
1435.056696	750.7999878
1435.5826	743.7999878
1436.108448	748.7999878
1436.634241	745.0
1437.159979	747.7999878
1437.685662	751.0
1438.21129	745.4000244
1438.736863	751.0
1439.262381	749.5999756
1439.787843	750.5999756
1440.313251	748.4000244
1440.838603	746.7999878
1441.3639	750.5999756
1441.889143	747.4000244
1442.41433	746.7999878
1442.939462	751.0
1443.464539	744.2000122
1443.989561	751.0
1444.514528	750.2000122
1445.03944	745.4000244
1445.564297	742.4000244
1446.089099	747.5999756
1446.613846	745.0
1447.138537	741.7999878
1447.663174	745.0
1448.187756	744.4000244
1448.712282	752.5999756
1449.236754	744.0
1449.761171	744.7999878
1450.285532	741.7999878
1450.809839	750.7999878
1451.33409	743.5999756
1451.858287	747.0
1452.382428	749.4000244
1452.906515	750.2000122
1453.430546	746.2000122
1453.954523	749.7999878
1454.478444	740.7999878
1455.002311	746.0
1455.526123	744.4000244
1456.049879	743.7999878
1456.573581	746.5999756
1457.097227	739.7999878
1457.620819	743.5999756
1458.144356	744.4000244
1458.667837	747.2000122
1459.191264	742.2000122
1459.714636	746.4000244
1460.237952	746.2000122
1460.761214	740.4000244
1461.284421	744.5999756
1461.807573	745.4000244
1462.33067	742.5999756
1462.853712	747.2000122
1463.376699	742.4000244
1463.899632	742.7999878
1464.422509	742.2000122
1464.945331	745.7999878
1465.468099	740.5999756
1465.990811	738.7999878
1466.513469	741.0
1467.036071	746.7999878
1467.558619	745.0
1468.081112	743.5999756
1468.60355	741.2000122
1469.125933	739.2000122
1469.648261	746.0
1470.170534	744.0
1470.692752	741.4000244
1471.214916	744.5999756
1471.737024	743.2000122
1472.259078	743.2000122
1472.781077	742.7999878
1473.303021	740.7999878
1473.82491	745.5999756
1474.346744	739.4000244
1474.868523	745.7999878
1475.390248	747.0
1475.911917	744.2000122
1476.433532	742.0
1476.955092	739.2000122
1477.476597	746.5999756
1477.998047	744.5999756
1478.519442	742.2000122
1479.040783	744.4000244
1479.562068	738.7999878
1480.083299	747.2000122
1480.604475	750.4000244
1481.125596	742.2000122
1481.646663	741.4000244
1482.167674	743.4000244
1482.688631	743.4000244
1483.209533	737.5999756
1483.73038	738.0
1484.251172	745.0
1484.771909	741.4000244
1485.292592	742.4000244
1485.81322	740.2000122
1486.333793	740.4000244
1486.854311	744.7999878
1487.374775	740.7999878
1487.895183	745.4000244
1488.415537	742.5999756
1488.935836	738.0
1489.456081	738.7999878
1489.97627	740.2000122
1490.496405	736.0
1491.016485	735.7999878
1491.536511	743.2000122
1492.056481	744.7999878
1492.576397	739.4000244
1493.096258	742.7999878
1493.616064	739.4000244
1494.135816	738.2000122
1494.655513	737.2000122
1495.175155	740.2000122
1495.694742	740.2000122
1496.214274	736.0
1496.733752	739.5999756
1497.253175	738.7999878
1497.772544	741.0
1498.291858	740.0
1498.811116	742.7999878
1499.330321	735.7999878
1499.84947	740.5999756
1500.368565	738.7999878
1500.887605	740.7999878
1501.406591	734.4000244
1501.925521	740.4000244
1502.444397	735.4000244
1502.963219	744.4000244
1503.481985	739.2000122
1504.000697	736.5999756
1504.519355	740.2000122
1505.037957	737.5999756
1505.556505	738.5999756
1506.074999	737.4000244
1506.593437	739.2000122
1507.111821	733.4000244
1507.63015	736.4000244
1508.148425	739.0
1508.666645	736.2000122
1509.18481	737.0
1509.702921	743.4000244
1510.220977	739.4000244
1510.738979	748.7999878
1511.256925	737.5999756
1511.774817	735.4000244
1512.292655	742.5999756
1512.810438	735.7999878
1513.328166	741.2000122
1513.84584	740.7999878
1514.363459	743.2000122
1514.881023	739.7999878
1515.398533	738.2000122
1515.915988	737.0
1516.433389	738.0
1516.950734	739.2000122
1517.468026	737.7999878
1517.985263	736.0
1518.502445	736.0
1519.019572	733.7999878
1519.536645	737.0
1520.053664	739.4000244
1520.570628	742.2000122
1521.087537	742.4000244
1521.604392	739.2000122
1522.121192	732.4000244
1522.637937	739.0
1523.154628	736.2000122
1523.671265	738.4000244
1524.187847	736.7999878
1524.704374	738.4000244
1525.220847	738.0
1525.737265	745.0
1526.253629	740.7999878
1526.769938	737.5999756
1527.286192	734.7999878
1527.802392	741.7999878
1528.318538	736.5999756
1528.834629	737.2000122
1529.350666	738.7999878
1529.866648	734.5999756
1530.382575	734.7999878
1530.898448	731.7999878
1531.414266	735.7999878
1531.93003	740.7999878
1532.44574	737.2000122
1532.961395	732.7999878
1533.476995	734.2000122
1533.992541	739.0
1534.508033	733.7999878
1535.02347	738.0
1535.538852	732.2000122
1536.05418	739.4000244
1536.569454	735.7999878
1537.084673	734.2000122
1537.599837	738.2000122
1538.114947	738.0
1538.630003	733.2000122
1539.145004	736.0
1539.659951	737.5999756
1540.174843	737.0
1540.689681	739.5999756
1541.204465	736.0
1541.719194	732.0
1542.233868	738.0
1542.748488	737.0
1543.263054	738.7999878
1543.777565	728.7999878
1544.292022	737.4000244
1544.806424	735.0
1545.320772	734.5999756
1545.835066	731.0
1546.349305	733.5999756
1546.863489	729.4000244
1547.37762	738.5999756
1547.891696	736.0
1548.405717	736.5999756
1548.919684	734.4000244
1549.433597	735.4000244
1549.947455	731.7999878
1550.461259	731.5999756
1550.975009	735.2000122
1551.488704	734.5999756
1552.002345	736.0
1552.515931	736.5999756
1553.029463	739.2000122
1553.542941	730.4000244
1554.056364	740.4000244
1554.569733	735.5999756
1555.083048	734.7999878
1555.596308	736.5999756
1556.109514	725.7999878
1556.622665	737.2000122
1557.135762	732.7999878
1557.648805	738.5999756
1558.161794	736.5999756
1558.674728	740.0
1559.187608	737.0
1559.700433	733.4000244
1560.213205	731.5999756
1560.725921	732.7999878
1561.238584	732.0
1561.751192	729.0
1562.263746	734.4000244
1562.776246	733.7999878
1563.288691	738.2000122
1563.801082	734.5999756
1564.313419	733.2000122
1564.825701	735.4000244
1565.337929	738.0
1565.850103	732.2000122
1566.362223	737.0
1566.874288	729.0
1567.386299	734.5999756
1567.898256	729.2000122
1568.410158	729.4000244
1568.922007	736.7999878
1569.4338	729.4000244
1569.94554	732.0
1570.457226	735.4000244
1570.968857	735.4000244
1571.480434	735.2000122
1571.991956	736.7999878
1572.503425	732.5999756
1573.014839	732.4000244
1573.526199	731.2000122
1574.037505	731.2000122
1574.548756	737.4000244
1575.059953	736.2000122
1575.571096	726.2000122
1576.082185	736.0
1576.59322	729.2000122
1577.1042	733.4000244
1577.615126	736.4000244
1578.125998	731.7999878
1578.636816	732.7999878
1579.14758	730.0
1579.658289	730.2000122
1580.168944	736.5999756
1580.679545	732.5999756
1581.190092	732.2000122
1581.700585	730.0
1582.211023	728.4000244
1582.721407	728.4000244
1583.231737	735.7999878
1583.742013	732.2000122
1584.252235	733.0
1584.762403	733.4000244
1585.272516	735.2000122
1585.782575	727.2000122
1586.292581	732.0
1586.802532	729.7999878
1587.312428	732.0
1587.822271	733.7999878
1588.33206	728.2000122
1588.841794	728.7999878
1589.351474	729.5999756
1589.8611	733.4000244
1590.370672	731.2000122
1590.88019	728.5999756
1591.389654	732.7999878
1591.899064	729.5999756
1592.408419	728.0
