1042.452273	729.4000244
1043.018714	725.2000122
1043.585098	728.4000244
1044.151424	730.7999878
1044.717692	722.2000122
1045.283903	719.7999878
1045.850056	717.2000122
1046.416151	717.0
1046.982188	713.5999756
1047.548167	715.2000122
1048.114089	710.5999756
1048.679953	714.2000122
1049.24576	713.5999756
1049.811509	713.0
1050.3772	705.0
1050.942833	710.0
1051.508408	704.0
1052.073926	706.4000244
1052.639387	711.4000244
1053.204789	703.7999878
1053.770134	705.5999756
1054.335421	702.5999756
1054.900651	702.5999756
1055.465823	706.2000122
1056.030937	699.4000244
1056.595993	701.7999878
1057.160992	702.2000122
1057.725934	701.5999756
1058.290817	700.0
1058.855643	700.0
1059.420411	700.4000244
1059.985122	700.4000244
1060.549775	699.5999756
1061.114371	697.4000244
1061.678908	698.7999878
1062.243389	699.5999756
1062.807811	698.7999878
1063.372176	701.5999756
1063.936483	699.4000244
1064.500733	701.2000122
1065.064925	695.7999878
1065.62906	705.2000122
1066.193137	701.2000122
1066.757156	702.0
1067.321118	700.0
1067.885022	700.5999756
1068.448869	699.7999878
1069.012658	700.0
1069.57639	706.0
1070.140063	711.5999756
1070.70368	699.5999756
1071.267239	697.7999878
1071.83074	698.0
1072.394184	703.2000122
1072.95757	700.5999756
1073.520899	702.2000122
1074.08417	699.5999756
1074.647383	701.4000244
1075.21054	702.2000122
1075.773638	698.7999878
1076.336679	703.0
1076.899663	700.2000122
1077.462589	705.5999756
1078.025457	701.4000244
1078.588268	703.5999756
1079.151022	702.0
1079.713718	702.4000244
1080.276356	703.7999878
1080.838937	703.0
1081.401461	702.0
1081.963927	703.4000244
1082.526336	705.0
1083.088687	698.5999756
1083.650981	704.7999878
1084.213217	705.4000244
1084.775396	701.7999878
1085.337517	702.5999756
1085.899581	709.4000244
1086.461587	705.0
1087.023536	703.0
1087.585428	706.5999756
1088.147262	703.0
1088.709039	708.5999756
1089.270758	708.4000244
1089.83242	704.5999756
1090.394024	711.2000122
1090.955571	706.7999878
1091.517061	712.2000122
1092.078493	710.4000244
1092.639868	710.0
1093.201185	707.2000122
1093.762445	706.7999878
1094.323648	705.0
1094.884793	709.4000244
1095.445881	709.2000122
1096.006911	703.5999756
1096.567884	703.0
1097.1288	710.7999878
1097.689659	702.4000244
1098.25046	702.0
1098.811203	700.5999756
1099.37189	701.2000122
1099.932518	703.0
1100.49309	704.4000244
1101.053604	700.2000122
1101.614061	699.0
1102.174461	701.4000244
1102.734803	694.5999756
1103.295088	699.2000122
1103.855316	698.7999878
1104.415486	701.2000122
1104.975599	691.7999878
1105.535655	699.4000244
1106.095653	699.5999756
1106.655594	697.5999756
1107.215478	697.0
1107.775305	696.7999878
1108.335074	702.4000244
1108.894786	696.0
1109.45444	697.5999756
1110.014038	696.7999878
1110.573578	692.4000244
1111.133061	700.0
1111.692486	696.0
1112.251854	695.5999756
1112.811165	702.5999756
1113.370419	695.5999756
1113.929616	700.2000122
1114.488755	696.0
1115.047837	698.2000122
1115.606862	696.2000122
1116.16583	695.5999756
1116.72474	701.2000122
1117.283593	697.7999878
1117.842389	697.2000122
1118.401128	695.2000122
1118.959809	696.5999756
1119.518433	698.0
1120.077	699.2000122
1120.63551	701.7999878
1121.193963	697.5999756
1121.752358	697.7999878
1122.310697	700.4000244
1122.868978	698.7999878
1123.427202	700.2000122
1123.985368	696.4000244
1124.543478	697.7999878
1125.10153	697.5999756
1125.659526	696.7999878
1126.217464	695.0
1126.775345	694.7999878
1127.333168	695.7999878
1127.890935	695.7999878
1128.448644	697.5999756
1129.006297	701.5999756
1129.563892	698.4000244
1130.12143	702.5999756
1130.678911	699.5999756
1131.236335	698.4000244
1131.793701	699.5999756
1132.351011	697.0
1132.908263	696.5999756
1133.465458	695.2000122
1134.022597	697.2000122
1134.579678	697.0
1135.136702	696.4000244
1135.693669	697.4000244
1136.250578	699.0
1136.807431	696.0
1137.364227	696.2000122
1137.920965	697.5999756
1138.477647	698.4000244
1139.034271	699.5999756
1139.590839	692.4000244
1140.147349	697.2000122
1140.703802	693.2000122
1141.260198	693.5999756
1141.816537	691.2000122
1142.37282	695.5999756
1142.929045	696.4000244
1143.485213	696.5999756
1144.041323	692.5999756
1144.597377	697.2000122
1145.153374	697.2000122
1145.709314	696.5999756
1146.265197	698.0
1146.821023	697.0
1147.376792	700.0
1147.932503	692.4000244
1148.488158	694.0
1149.043756	697.4000244
1149.599297	694.0
1150.154781	695.7999878
1150.710207	696.4000244
1151.265577	696.4000244
1151.82089	693.7999878
1152.376146	693.5999756
1152.931345	697.7999878
1153.486487	695.0
1154.041572	696.2000122
1154.5966	694.5999756
1155.151571	696.0
1155.706485	696.2000122
1156.261342	695.4000244
1156.816142	700.2000122
1157.370885	700.7999878
1157.925572	694.0
1158.480201	697.4000244
1159.034774	694.4000244
1159.589289	696.7999878
1160.143748	695.7999878
1160.698149	698.4000244
1161.252494	694.0
1161.806782	695.5999756
1162.361013	693.7999878
1162.915187	697.4000244
1163.469304	693.0
1164.023364	694.7999878
1164.577368	696.2000122
1165.131314	699.7999878
1165.685204	694.0
1166.239036	696.7999878
1166.792812	696.7999878
1167.346531	694.2000122
1167.900193	693.5999756
1168.453798	698.4000244
1169.007347	691.7999878
1169.560838	697.2000122
1170.114273	695.5999756
1170.66765	697.4000244
1171.220971	694.5999756
1171.774235	699.0
1172.327443	698.2000122
1172.880593	693.0
1173.433687	699.5999756
1173.986723	697.7999878
1174.539703	696.5999756
1175.092626	695.7999878
1175.645493	696.0
1176.198302	694.4000244
1176.751055	697.0
1177.303751	695.7999878
1177.85639	697.7999878
1178.408972	695.0
1178.961498	696.5999756
1179.513966	693.2000122
1180.066378	692.4000244
1180.618733	693.4000244
1181.171032	692.5999756
1181.723273	694.2000122
1182.275458	695.4000244
1182.827586	692.5999756
1183.379657	695.7999878
1183.931672	694.5999756
1184.48363	695.0
1185.035531	695.2000122
1185.587375	696.0
1186.139162	695.7999878
1186.690893	692.0
1187.242567	693.5999756
1187.794184	693.4000244
1188.345745	696.4000244
1188.897249	697.7999878
1189.448696	695.4000244
1190.000086	696.2000122
1190.55142	690.5999756
1191.102697	694.5999756
1191.653918	695.4000244
1192.205081	694.4000244
1192.756188	695.0
1193.307238	708.0
1193.858232	696.4000244
1194.409169	698.0
1194.960049	692.2000122
1195.510872	694.7999878
1196.061639	694.4000244
1196.612349	695.7999878
1197.163003	697.0
1197.713599	692.2000122
1198.264139	698.2000122
1198.814623	694.7999878
1199.36505	698.0
1199.91542	698.4000244
1200.465734	697.0
1201.01599	694.7999878
1201.566191	692.5999756
1202.116334	693.7999878
1202.666421	695.4000244
1203.216452	694.5999756
1203.766425	696.4000244
1204.316343	692.2000122
1204.866203	697.0
1205.416007	695.0
1205.965754	700.0
1206.515445	695.7999878
1207.065079	696.0
1207.614657	692.4000244
1208.164177	694.2000122
1208.713642	694.5999756
1209.26305	697.5999756
1209.812401	696.0
1210.361695	691.5999756
1210.910933	702.7999878
1211.460115	697.0
1212.00924	695.5999756
1212.558308	699.7999878
1213.10732	697.7999878
1213.656275	695.2000122
1214.205174	704.2000122
1214.754016	702.2000122
1215.302801	694.5999756
1215.85153	697.4000244
1216.400203	698.0
1216.948819	697.4000244
1217.497378	698.2000122
1218.045881	700.0
1218.594327	694.4000244
1219.142717	697.0
1219.691051	693.0
1220.239327	695.7999878
1220.787548	695.2000122
1221.335712	696.4000244
1221.883819	692.7999878
1222.43187	697.4000244
1222.979864	696.4000244
1223.527802	694.0
1224.075683	696.5999756
1224.623508	693.7999878
1225.171277	695.5999756
1225.718989	696.5999756
1226.266644	696.0
1226.814243	694.4000244
1227.361786	696.0
1227.909272	694.7999878
1228.456702	697.5999756
1229.004075	693.0
1229.551392	695.7999878
1230.098652	695.7999878
1230.645856	699.2000122
1231.193003	696.4000244
1231.740094	700.0
1232.287129	695.0
1232.834107	693.4000244
1233.381029	696.0
1233.927894	698.2000122
1234.474703	694.7999878
1235.021455	696.5999756
1235.568151	694.2000122
1236.114791	699.4000244
1236.661374	699.5999756
1237.207901	693.7999878
1237.754372	695.2000122
1238.300786	696.5999756
1238.847144	696.0
1239.393445	699.2000122
1239.93969	697.0
1240.485879	696.5999756
1241.032011	695.4000244
1241.578087	693.5999756
1242.124106	694.4000244
1242.67007	703.2000122
1243.215976	693.5999756
1243.761827	700.4000244
1244.307621	699.5999756
1244.853359	695.5999756
1245.39904	695.7999878
1245.944665	696.5999756
1246.490234	695.2000122
1247.035746	696.0
1247.581203	696.5999756
1248.126602	699.0
1248.671946	700.4000244
1249.217233	698.5999756
1249.762464	700.5999756
1250.307638	700.7999878
1250.852757	701.4000244
1251.397819	696.0
1251.942824	698.2000122
1252.487774	697.0
1253.032667	695.7999878
1253.577503	697.7999878
1254.122284	695.5999756
1254.667008	697.5999756
1255.211676	696.4000244
1255.756288	696.4000244
1256.300843	693.0
1256.845342	698.4000244
1257.389785	695.0
1257.934172	700.2000122
1258.478502	698.2000122
1259.022776	702.0
1259.566994	699.0
1260.111156	716.2000122
1260.655261	699.7999878
1261.199311	693.2000122
1261.743304	698.5999756
1262.28724	700.5999756
1262.831121	702.7999878
1263.374945	706.4000244
1263.918713	707.4000244
1264.462425	718.4000244
1265.006081	740.7999878
1265.54968	752.5999756
1266.093223	728.2000122
1266.636711	715.7999878
1267.180141	703.2000122
1267.723516	703.0
1268.266835	700.2000122
1268.810097	699.5999756
1269.353303	696.7999878
1269.896453	696.7999878
1270.439547	698.2000122
1270.982584	698.0
1271.525566	696.2000122
1272.068491	702.5999756
1272.61136	696.2000122
1273.154173	696.7999878
1273.69693	698.2000122
1274.239631	699.5999756
1274.782275	698.7999878
1275.324864	698.7999878
1275.867396	696.0
1276.409872	699.5999756
1276.952292	701.7999878
1277.494656	698.2000122
1278.036964	703.0
1278.579215	700.5999756
1279.121411	699.0
1279.66355	703.4000244
1280.205634	697.0
1280.747661	701.2000122
1281.289632	705.2000122
1281.831547	702.7999878
1282.373406	708.4000244
1282.915209	713.5999756
1283.456955	728.7999878
1283.998646	754.4000244
1284.540281	849.5999756
1285.081859	1166.199951
1285.623381	1543.0
1286.164848	1155.599976
1286.706258	826.4000244
1287.247612	747.0
1287.788911	721.4000244
1288.330153	711.0
1288.871339	708.0
1289.412469	702.7999878
1289.953543	702.7999878
1290.494561	702.0
1291.035523	704.0
1291.576428	701.0
1292.117278	698.4000244
1292.658072	702.0
1293.19881	700.0
1293.739492	696.7999878
1294.280118	698.2000122
1294.820687	696.2000122
1295.361201	697.0
1295.901659	699.2000122
1296.442061	698.2000122
1296.982406	696.7999878
1297.522696	697.2000122
1298.06293	693.0
1298.603108	697.2000122
1299.143229	697.2000122
1299.683295	697.2000122
1300.223305	696.4000244
1300.763259	695.5999756
1301.303157	697.5999756
1301.842999	695.5999756
1302.382785	697.2000122
1302.922515	694.7999878
1303.462189	695.4000244
1304.001807	697.2000122
1304.541369	692.5999756
1305.080875	696.2000122
1305.620326	699.5999756
1306.15972	700.0
1306.699058	695.0
1307.238341	693.7999878
1307.777567	695.2000122
1308.316738	693.2000122
1308.855853	692.7999878
1309.394912	697.2000122
1309.933915	698.5999756
1310.472862	693.7999878
1311.011753	697.2000122
1311.550588	698.0
1312.089367	699.7999878
1312.62809	699.0
1313.166758	697.2000122
1313.70537	693.5999756
1314.243925	693.2000122
1314.782425	693.5999756
1315.320869	700.4000244
1315.859257	694.5999756
1316.397589	694.0
1316.935866	695.7999878
1317.474086	695.4000244
1318.012251	694.4000244
1318.55036	696.5999756
1319.088413	699.0
1319.62641	695.4000244
1320.164351	693.7999878
1320.702236	694.7999878
1321.240066	699.2000122
1321.777839	696.7999878
1322.315557	696.7999878
1322.853219	697.2000122
1323.390826	699.0
1323.928376	704.4000244
1324.465871	694.0
1325.003309	696.5999756
1325.540692	698.7999878
1326.07802	694.0
1326.615291	695.5999756
1327.152506	699.0
1327.689666	696.2000122
1328.22677	696.2000122
1328.763818	697.2000122
1329.300811	696.4000244
1329.837747	692.2000122
1330.374628	697.5999756
1330.911453	701.2000122
1331.448222	697.4000244
1331.984936	697.2000122
1332.521594	697.2000122
1333.058196	693.2000122
1333.594742	697.2000122
1334.131232	699.2000122
1334.667667	695.2000122
1335.204046	696.0
1335.740369	699.5999756
1336.276637	694.2000122
1336.812848	691.7999878
1337.349004	698.0
1337.885105	692.5999756
1338.421149	693.5999756
1338.957138	696.7999878
1339.493071	696.5999756
1340.028949	696.7999878
1340.56477	698.7999878
1341.100536	693.7999878
1341.636246	698.7999878
1342.171901	696.4000244
1342.7075	692.5999756
1343.243043	694.4000244
1343.77853	699.0
1344.313962	695.2000122
1344.849338	696.0
1345.384659	695.4000244
1345.919923	697.2000122
1346.455133	695.7999878
1346.990286	699.4000244
1347.525384	699.0
1348.060426	695.7999878
1348.595412	699.4000244
1349.130343	695.2000122
1349.665218	698.4000244
1350.200037	696.4000244
1350.734801	694.7999878
1351.269509	691.4000244
1351.804162	694.7999878
1352.338758	696.4000244
1352.8733	696.5999756
1353.407785	699.4000244
1353.942215	698.0
1354.476589	697.7999878
1355.010908	699.0
1355.545171	697.4000244
1356.079379	695.2000122
1356.61353	702.4000244
1357.147627	695.0
1357.681667	695.2000122
1358.215652	695.5999756
1358.749582	696.5999756
1359.283456	695.4000244
1359.817274	696.5999756
1360.351037	696.4000244
1360.884744	694.7999878
1361.418395	695.0
1361.951991	693.7999878
1362.485531	697.4000244
1363.019016	698.4000244
1363.552445	696.5999756
1364.085819	696.5999756
1364.619137	699.0
1365.1524	698.0
1365.685607	701.4000244
1366.218758	697.0
1366.751854	702.0
1367.284894	697.2000122
1367.817879	693.7999878
1368.350808	694.7999878
1368.883682	699.5999756
1369.4165	695.7999878
1369.949263	701.7999878
1370.48197	720.7999878
1371.014622	710.7999878
1371.547218	698.5999756
1372.079758	700.4000244
1372.612244	697.4000244
1373.144673	702.4000244
1373.677047	702.2000122
1374.209366	695.7999878
1374.741629	696.7999878
1375.273836	697.5999756
1375.805989	694.5999756
1376.338085	698.5999756
1376.870126	700.4000244
1377.402112	696.5999756
1377.934042	695.0
1378.465917	697.2000122
1378.997736	697.4000244
1379.5295	697.2000122
1380.061208	699.0
1380.592861	697.7999878
1381.124459	700.2000122
1381.656	702.2000122
1382.187487	700.2000122
1382.718918	698.4000244
1383.250294	700.0
1383.781614	704.4000244
1384.312879	704.4000244
1384.844088	705.4000244
1385.375242	707.4000244
1385.90634	715.7999878
1386.437383	726.0
1386.968371	744.2000122
1387.499303	784.0
1388.03018	944.5999756
1388.561001	1663.800049
1389.091767	2153.800049
1389.622478	1174.599976
1390.153133	812.5999756
1390.683733	744.7999878
1393.335901	709.5999756
1393.866168	704.4000244
1394.396381	702.4000244
1394.926537	700.7999878
1395.456639	698.4000244
1395.986685	696.4000244
1396.516675	697.5999756
1397.046611	693.7999878
1397.576491	694.2000122
1398.106315	698.2000122
1398.636084	698.4000244
1399.165798	697.4000244
1399.695457	698.2000122
1400.22506	702.5999756
1400.754608	696.7999878
1401.284101	696.0
1401.813538	699.5999756
1402.34292	700.5999756
1402.872247	699.2000122
1403.401518	696.7999878
1403.930734	697.5999756
1404.459895	702.0
1404.989	698.7999878
1405.51805	699.5999756
1406.047045	698.0
1406.575984	698.2000122
1407.104869	702.0
1407.633697	698.7999878
1408.162471	704.0
1408.691189	706.5999756
1409.219852	722.5999756
1409.74846	762.7999878
1410.277013	800.2000122
1410.80551	766.4000244
1411.333952	724.7999878
1411.862339	708.7999878
1412.39067	702.0
1412.918946	702.4000244
1413.447167	703.7999878
1413.975333	697.4000244
1414.503444	694.4000244
1415.031499	700.7999878
1415.559499	709.4000244
1416.087444	697.2000122
1416.615333	699.7999878
1417.143167	697.4000244
1417.670947	695.5999756
1418.19867	694.0
1418.726339	695.4000244
1419.253952	697.2000122
1419.781511	696.0
1420.309014	692.2000122
1420.836461	694.2000122
1421.363854	697.2000122
1421.891191	696.0
1422.418474	693.7999878
1422.945701	696.0
1423.472872	694.2000122
1423.999989	696.5999756
1424.52705	699.4000244
1425.054057	697.2000122
1425.581008	698.2000122
1426.107904	696.5999756
1426.634745	696.7999878
1427.16153	695.7999878
1427.688261	695.5999756
1428.214936	699.2000122
1428.741556	698.4000244
1429.268121	694.0
1429.794631	695.7999878
1430.321085	695.7999878
1430.847485	698.5999756
1431.373829	696.5999756
1431.900118	697.4000244
1432.426353	696.0
1432.952532	698.0
1433.478655	695.5999756
1434.004724	694.0
1434.530738	693.2000122
1435.056696	694.4000244
1435.5826	695.2000122
1436.108448	694.5999756
1436.634241	693.7999878
1437.159979	693.0
1437.685662	695.5999756
1438.21129	693.7999878
1438.736863	694.7999878
1439.262381	692.4000244
1439.787843	697.4000244
1440.313251	693.7999878
1440.838603	697.0
1441.3639	696.4000244
1441.889143	697.0
1442.41433	696.2000122
1442.939462	696.0
1443.464539	693.5999756
1443.989561	696.4000244
1444.514528	694.5999756
1445.03944	696.5999756
1445.564297	694.5999756
1446.089099	690.0
1446.613846	692.5999756
1447.138537	692.2000122
1447.663174	699.5999756
1448.187756	694.2000122
1448.712282	693.5999756
1449.236754	695.5999756
1449.761171	696.0
1450.285532	694.4000244
1450.809839	692.4000244
1451.33409	692.0
1451.858287	692.2000122
1452.382428	695.4000244
1452.906515	692.5999756
1453.430546	691.5999756
1453.954523	692.0
1454.478444	697.4000244
1455.002311	694.4000244
1455.526123	690.7999878
1456.049879	693.2000122
1456.573581	692.2000122
1457.097227	694.7999878
1457.620819	692.5999756
1458.144356	695.4000244
1458.667837	695.4000244
1459.191264	690.7999878
1459.714636	693.7999878
1460.237952	693.2000122
1460.761214	693.0
1461.284421	692.0
1461.807573	693.0
1462.33067	695.4000244
1462.853712	696.4000244
1463.376699	694.5999756
1463.899632	693.4000244
1464.422509	692.5999756
1464.945331	692.5999756
1465.468099	693.4000244
1465.990811	695.4000244
1466.513469	694.7999878
1467.036071	694.4000244
1467.558619	697.4000244
1468.081112	692.4000244
1468.60355	692.7999878
1469.125933	694.5999756
1469.648261	690.2000122
1470.170534	694.7999878
1470.692752	697.0
1471.214916	694.7999878
1471.737024	693.7999878
1472.259078	690.7999878
1472.781077	690.5999756
1473.303021	692.7999878
1473.82491	697.2000122
1474.346744	695.0
1474.868523	693.0
1475.390248	695.0
1475.911917	693.5999756
1476.433532	690.0
1476.955092	690.7999878
1477.476597	694.7999878
1477.998047	696.0
1478.519442	692.0
1479.040783	690.0
1479.562068	693.2000122
1480.083299	695.7999878
1480.604475	696.4000244
1481.125596	691.7999878
1481.646663	691.7999878
1482.167674	698.2000122
1482.688631	689.2000122
1483.209533	693.2000122
1483.73038	697.0
1484.251172	692.5999756
1484.771909	689.0
1485.292592	692.0
1485.81322	696.0
1486.333793	693.2000122
1486.854311	690.2000122
1487.374775	690.7999878
1487.895183	696.7999878
1488.415537	697.2000122
1488.935836	692.0
1489.456081	693.0
1489.97627	692.0
1490.496405	691.7999878
1491.016485	691.4000244
1491.536511	696.0
1492.056481	694.4000244
1492.576397	694.7999878
1493.096258	692.4000244
1493.616064	689.5999756
1494.135816	688.5999756
1494.655513	693.5999756
1495.175155	688.0
1495.694742	692.4000244
1496.214274	692.4000244
1496.733752	692.2000122
1497.253175	697.0
1497.772544	694.7999878
1498.291858	693.2000122
1498.811116	693.5999756
1499.330321	690.4000244
1499.84947	697.4000244
1500.368565	693.7999878
1500.887605	694.0
1501.406591	692.4000244
1501.925521	691.5999756
1502.444397	691.4000244
1502.963219	696.0
1503.481985	695.0
1504.000697	693.4000244
1504.519355	691.0
1505.037957	692.7999878
1505.556505	692.2000122
1506.074999	692.4000244
1506.593437	697.5999756
1507.111821	691.7999878
1507.63015	691.4000244
1508.148425	690.5999756
1508.666645	692.0
1509.18481	693.4000244
1509.702921	689.2000122
1510.220977	693.5999756
1510.738979	697.2000122
1511.256925	692.4000244
1511.774817	691.0
1512.292655	691.2000122
1512.810438	692.4000244
1513.328166	697.4000244
1513.84584	691.0
1514.363459	691.5999756
1514.881023	691.7999878
1515.398533	691.4000244
1515.915988	691.4000244
1516.433389	694.4000244
1516.950734	691.7999878
1517.468026	693.2000122
1517.985263	693.0
1518.502445	693.4000244
1519.019572	693.5999756
1519.536645	693.2000122
1520.053664	693.2000122
1520.570628	691.5999756
1521.087537	696.4000244
1521.604392	694.0
1522.121192	693.0
1522.637937	690.0
1523.154628	693.4000244
1523.671265	692.5999756
1524.187847	691.2000122
1524.704374	692.0
1525.220847	693.4000244
1525.737265	691.4000244
1526.253629	697.2000122
1526.769938	687.7999878
1527.286192	691.5999756
1527.802392	693.4000244
1528.318538	696.2000122
1528.834629	698.2000122
1529.350666	696.0
1529.866648	694.0
1530.382575	692.7999878
1530.898448	696.0
1531.414266	694.2000122
1531.93003	691.2000122
1532.44574	694.0
1532.961395	690.2000122
1533.476995	692.7999878
1533.992541	694.4000244
1534.508033	691.4000244
1535.02347	694.0
1535.538852	689.0
1536.05418	693.7999878
1536.569454	690.7999878
1537.084673	690.5999756
1537.599837	690.2000122
1538.114947	692.7999878
1538.630003	694.7999878
1539.145004	694.2000122
1539.659951	696.2000122
1540.174843	695.5999756
1540.689681	690.5999756
1541.204465	694.4000244
1541.719194	694.5999756
1542.233868	696.4000244
1542.748488	693.7999878
1543.263054	693.2000122
1543.777565	694.7999878
1544.292022	690.5999756
1544.806424	691.5999756
1545.320772	690.7999878
1545.835066	691.0
1546.349305	693.0
1546.863489	693.0
1547.37762	692.4000244
1547.891696	692.2000122
1548.405717	694.2000122
1548.919684	693.0
1549.433597	693.7999878
1549.947455	695.4000244
1550.461259	695.0
1550.975009	690.0
1551.488704	694.0
1552.002345	689.7999878
1552.515931	696.0
1553.029463	692.0
1553.542941	694.7999878
1554.056364	692.0
1554.569733	693.0
1555.083048	697.0
1555.596308	695.2000122
1556.109514	692.4000244
1556.622665	692.0
1557.135762	688.4000244
1557.648805	693.4000244
1558.161794	692.2000122
1558.674728	689.4000244
1559.187608	692.5999756
1559.700433	691.0
1560.213205	694.4000244
1560.725921	693.2000122
1561.238584	690.0
1561.751192	691.5999756
1562.263746	692.2000122
1562.776246	696.4000244
1563.288691	693.4000244
1563.801082	694.7999878
1564.313419	693.2000122
1564.825701	693.4000244
1565.337929	693.0
1565.850103	695.0
1566.362223	691.7999878
1566.874288	693.0
1567.386299	695.0
1567.898256	693.7999878
1568.410158	694.0
1568.922007	692.7999878
1569.4338	695.0
1569.94554	690.4000244
1570.457226	697.4000244
1570.968857	692.5999756
1571.480434	692.2000122
1571.991956	694.4000244
1572.503425	692.4000244
1573.014839	689.4000244
1573.526199	692.7999878
1574.037505	690.0
1574.548756	696.0
1575.059953	688.2000122
1575.571096	694.4000244
1576.082185	694.0
1576.59322	691.7999878
1577.1042	693.0
1577.615126	691.2000122
1578.125998	691.4000244
1578.636816	693.7999878
1579.14758	688.7999878
1579.658289	694.5999756
1580.168944	693.5999756
1580.679545	696.7999878
1581.190092	692.7999878
1581.700585	691.7999878
1582.211023	691.2000122
1582.721407	688.2000122
1583.231737	693.2000122
1583.742013	693.2000122
1584.252235	694.0
1584.762403	689.5999756
1585.272516	693.0
1585.782575	690.7999878
1586.292581	696.0
1586.802532	691.7999878
1587.312428	691.0
1587.822271	693.2000122
1588.33206	694.7999878
1588.841794	694.5999756
1589.351474	695.5999756
1589.8611	695.4000244
1590.370672	691.5999756
1590.88019	693.2000122
1591.389654	691.5999756
1591.899064	692.0
1592.408419	692.5999756
