1042.452273	699.0
1043.018714	707.0
1043.585098	702.4000244
1044.151424	701.7999878
1044.717692	696.2000122
1045.283903	700.0
1045.850056	699.4000244
1046.416151	699.4000244
1046.982188	699.4000244
1047.548167	699.2000122
1048.114089	700.4000244
1048.679953	701.0
1049.24576	699.5999756
1049.811509	693.7999878
1050.3772	698.7999878
1050.942833	700.4000244
1051.508408	700.0
1052.073926	693.0
1052.639387	693.0
1053.204789	698.5999756
1053.770134	695.0
1054.335421	693.4000244
1054.900651	698.4000244
1055.465823	697.5999756
1056.030937	695.0
1056.595993	692.5999756
1057.160992	694.7999878
1057.725934	696.0
1058.290817	697.7999878
1058.855643	694.5999756
1059.420411	693.5999756
1059.985122	694.7999878
1060.549775	696.7999878
1061.114371	692.2000122
1061.678908	698.7999878
1062.243389	697.0
1062.807811	694.5999756
1063.372176	693.7999878
1063.936483	696.4000244
1064.500733	692.4000244
1065.064925	693.2000122
1065.62906	694.0
1066.193137	693.0
1066.757156	691.0
1067.321118	694.7999878
1067.885022	694.2000122
1068.448869	693.7999878
1069.012658	692.7999878
1069.57639	691.4000244
1070.140063	698.2000122
1070.70368	695.0
1071.267239	692.0
1071.83074	691.7999878
1072.394184	693.0
1072.95757	693.4000244
1073.520899	694.2000122
1074.08417	695.7999878
1074.647383	692.2000122
1075.21054	689.0
1075.773638	691.5999756
1076.336679	695.0
1076.899663	693.7999878
1077.462589	692.0
1078.025457	693.2000122
1078.588268	690.5999756
1079.151022	691.2000122
1079.713718	693.2000122
1080.276356	693.0
1080.838937	691.4000244
1081.401461	688.5999756
1081.963927	692.2000122
1082.526336	693.0
1083.088687	690.0
1083.650981	692.4000244
1084.213217	689.4000244
1084.775396	695.0
1085.337517	695.2000122
1085.899581	691.4000244
1086.461587	697.0
1087.023536	693.2000122
1087.585428	691.5999756
1088.147262	689.7999878
1088.709039	693.4000244
1089.270758	691.2000122
1089.83242	694.2000122
1090.394024	691.5999756
1090.955571	691.2000122
1091.517061	691.4000244
1092.078493	692.2000122
1092.639868	692.5999756
1093.201185	690.4000244
1093.762445	693.2000122
1094.323648	693.0
1094.884793	692.5999756
1095.445881	693.2000122
1096.006911	693.4000244
1096.567884	693.2000122
1097.1288	697.2000122
1097.689659	693.2000122
1098.25046	690.4000244
1098.811203	693.4000244
1099.37189	695.0
1099.932518	693.4000244
1100.49309	687.5999756
1101.053604	690.7999878
1101.614061	693.0
1102.174461	692.7999878
1102.734803	694.5999756
1103.295088	692.0
1103.855316	696.2000122
1104.415486	685.5999756
1104.975599	692.7999878
1105.535655	690.0
1106.095653	692.4000244
1106.655594	691.4000244
1107.215478	692.0
1107.775305	691.7999878
1108.335074	690.4000244
1108.894786	690.2000122
1109.45444	692.7999878
1110.014038	691.2000122
1110.573578	690.0
1111.133061	697.7999878
1111.692486	689.0
1112.251854	692.2000122
1112.811165	691.7999878
1113.370419	691.0
1113.929616	691.4000244
1114.488755	690.7999878
1115.047837	691.2000122
1115.606862	694.4000244
1116.16583	694.4000244
1116.72474	692.4000244
1117.283593	689.4000244
1117.842389	693.5999756
1118.401128	692.0
1118.959809	688.5999756
1119.518433	691.0
1120.077	692.0
1120.63551	691.2000122
1121.193963	690.5999756
1121.752358	694.5999756
1122.310697	691.5999756
1122.868978	691.5999756
1123.427202	693.5999756
1123.985368	693.2000122
1124.543478	692.2000122
1125.10153	693.7999878
1125.659526	693.4000244
1126.217464	692.4000244
1126.775345	689.4000244
1127.333168	694.5999756
1127.890935	691.4000244
1128.448644	691.4000244
1129.006297	691.7999878
1129.563892	689.0
1130.12143	692.0
1130.678911	690.4000244
1131.236335	695.7999878
1131.793701	692.7999878
1132.351011	690.0
1132.908263	695.2000122
1133.465458	692.4000244
1134.022597	691.2000122
1134.579678	690.7999878
1135.136702	692.4000244
1135.693669	692.5999756
1136.250578	691.5999756
1136.807431	692.5999756
1137.364227	692.4000244
1137.920965	692.0
1138.477647	691.4000244
1139.034271	694.4000244
1139.590839	694.0
1140.147349	697.0
1140.703802	692.7999878
1141.260198	689.4000244
1141.816537	692.5999756
1142.37282	693.0
1142.929045	693.4000244
1143.485213	692.0
1144.041323	689.5999756
1144.597377	694.2000122
1145.153374	695.2000122
1145.709314	689.7999878
1146.265197	694.4000244
1146.821023	691.4000244
1147.376792	692.4000244
1147.932503	693.7999878
1148.488158	694.0
1149.043756	691.0
1149.599297	688.0
1150.154781	695.0
1150.710207	691.7999878
1151.265577	692.7999878
1151.82089	688.5999756
1152.376146	692.5999756
1152.931345	693.0
1153.486487	692.7999878
1154.041572	686.4000244
1154.5966	694.7999878
1155.151571	691.0
1155.706485	694.7999878
1156.261342	692.0
1156.816142	695.2000122
1157.370885	693.5999756
1157.925572	693.4000244
1158.480201	694.5999756
1159.034774	693.5999756
1159.589289	693.7999878
1160.143748	691.7999878
1160.698149	690.0
1161.252494	694.4000244
1161.806782	691.0
1162.361013	696.4000244
1162.915187	694.4000244
1163.469304	694.2000122
1164.023364	688.4000244
1164.577368	691.0
1165.131314	694.0
1165.685204	692.2000122
1166.239036	691.2000122
1166.792812	691.4000244
1167.346531	694.7999878
1167.900193	693.4000244
1168.453798	691.2000122
1169.007347	691.7999878
1169.560838	692.4000244
1170.114273	693.2000122
1170.66765	691.5999756
1171.220971	692.7999878
1171.774235	690.0
1172.327443	693.5999756
1172.880593	691.2000122
1173.433687	695.4000244
1173.986723	690.5999756
1174.539703	688.2000122
1175.092626	692.2000122
1175.645493	688.4000244
1176.198302	691.5999756
1176.751055	689.2000122
1177.303751	690.4000244
1177.85639	693.7999878
1178.408972	691.4000244
1178.961498	690.7999878
1179.513966	692.4000244
1180.066378	687.2000122
1180.618733	693.4000244
1181.171032	691.0
1181.723273	691.0
1182.275458	692.4000244
1182.827586	691.5999756
1183.379657	692.0
1183.931672	690.7999878
1184.48363	690.5999756
1185.035531	691.5999756
1185.587375	692.0
1186.139162	688.4000244
1186.690893	692.7999878
1187.242567	693.5999756
1187.794184	692.7999878
1188.345745	691.5999756
1188.897249	691.4000244
1189.448696	688.0
1190.000086	690.7999878
1190.55142	688.2000122
1191.102697	693.5999756
1191.653918	694.4000244
1192.205081	689.7999878
1192.756188	692.4000244
1193.307238	706.7999878
1193.858232	695.7999878
1194.409169	691.7999878
1194.960049	692.2000122
1195.510872	693.5999756
1196.061639	696.0
1196.612349	697.4000244
1197.163003	689.4000244
1197.713599	691.0
1198.264139	692.0
1198.814623	693.7999878
1199.36505	695.5999756
1199.91542	695.4000244
1200.465734	694.4000244
1201.01599	692.5999756
1201.566191	688.7999878
1202.116334	693.4000244
1202.666421	692.5999756
1203.216452	692.4000244
1203.766425	695.7999878
1204.316343	687.7999878
1204.866203	692.7999878
1205.416007	693.0
1205.965754	693.7999878
1206.515445	692.0
1207.065079	692.0
1207.614657	697.5999756
1208.164177	691.4000244
1208.713642	695.7999878
1209.26305	690.5999756
1209.812401	692.0
1210.361695	690.7999878
1210.910933	693.2000122
1211.460115	693.0
1212.00924	694.5999756
1212.558308	695.7999878
1213.10732	694.2000122
1213.656275	693.2000122
1214.205174	691.7999878
1214.754016	695.2000122
1215.302801	695.2000122
1215.85153	693.2000122
1216.400203	692.4000244
1216.948819	691.0
1217.497378	691.5999756
1218.045881	689.7999878
1218.594327	691.4000244
1219.142717	694.5999756
1219.691051	691.2000122
1220.239327	691.5999756
1220.787548	692.0
1221.335712	691.2000122
1221.883819	687.4000244
1222.43187	692.4000244
1222.979864	696.4000244
1223.527802	694.2000122
1224.075683	692.2000122
1224.623508	692.2000122
1225.171277	693.2000122
1225.718989	693.0
1226.266644	690.5999756
1226.814243	691.2000122
1227.361786	694.2000122
1227.909272	690.7999878
1228.456702	691.5999756
1229.004075	692.7999878
1229.551392	690.0
1230.098652	695.7999878
1230.645856	697.5999756
1231.193003	692.0
1231.740094	692.0
1232.287129	692.2000122
1232.834107	693.7999878
1233.381029	692.0
1233.927894	693.2000122
1234.474703	692.0
1235.021455	690.4000244
1235.568151	694.7999878
1236.114791	692.0
1236.661374	689.2000122
1237.207901	691.4000244
1237.754372	693.7999878
1238.300786	692.5999756
1238.847144	691.7999878
1239.393445	690.2000122
1239.93969	691.4000244
1240.485879	692.4000244
1241.032011	696.2000122
1241.578087	690.2000122
1242.124106	690.0
1242.67007	693.7999878
1243.215976	690.2000122
1243.761827	697.2000122
1244.307621	690.5999756
1244.853359	693.0
1245.39904	690.5999756
1245.944665	693.0
1246.490234	690.7999878
1247.035746	694.0
1247.581203	692.7999878
1248.126602	691.0
1248.671946	694.0
1249.217233	690.5999756
1249.762464	692.2000122
1250.307638	688.7999878
1250.852757	688.5999756
1251.397819	690.7999878
1251.942824	691.5999756
1252.487774	690.7999878
1253.032667	693.7999878
1253.577503	690.4000244
1254.122284	691.5999756
1254.667008	692.4000244
1255.211676	689.5999756
1255.756288	692.7999878
1256.300843	690.0
1256.845342	691.0
1257.389785	689.0
1257.934172	691.7999878
1258.478502	693.0
1259.022776	688.2000122
1259.566994	694.5999756
1260.111156	706.2000122
1260.655261	691.2000122
1261.199311	692.2000122
1261.743304	689.0
1262.28724	690.7999878
1262.831121	691.7999878
1263.374945	688.4000244
1263.918713	686.2000122
1264.462425	692.4000244
1265.006081	691.5999756
1265.54968	694.5999756
1266.093223	692.4000244
1266.636711	693.2000122
1267.180141	685.2000122
1267.723516	688.2000122
1268.266835	693.2000122
1268.810097	689.5999756
1269.353303	691.0
1269.896453	694.2000122
1270.439547	692.5999756
1270.982584	689.7999878
1271.525566	694.2000122
1272.068491	690.4000244
1272.61136	692.2000122
1273.154173	688.2000122
1273.69693	690.4000244
1274.239631	691.4000244
1274.782275	696.2000122
1275.324864	690.4000244
1275.867396	690.5999756
1276.409872	691.7999878
1276.952292	691.7999878
1277.494656	690.2000122
1278.036964	692.4000244
1278.579215	683.7999878
1279.121411	690.0
1279.66355	691.7999878
1280.205634	693.5999756
1280.747661	690.5999756
1281.289632	689.2000122
1281.831547	690.5999756
1282.373406	689.2000122
1282.915209	689.7999878
1283.456955	694.4000244
1283.998646	687.5999756
1284.540281	687.0
1285.081859	692.0
1285.623381	690.2000122
1286.164848	707.7999878
1286.706258	714.0
1287.247612	695.7999878
1287.788911	689.2000122
1288.330153	692.4000244
1288.871339	691.4000244
1289.412469	689.5999756
1289.953543	691.4000244
1290.494561	693.7999878
1291.035523	692.0
1291.576428	689.0
1292.117278	691.0
1292.658072	693.4000244
1293.19881	691.5999756
1293.739492	690.7999878
1294.280118	687.7999878
1294.820687	691.2000122
1295.361201	689.5999756
1295.901659	694.5999756
1296.442061	692.4000244
1296.982406	688.2000122
1297.522696	688.7999878
1298.06293	690.2000122
1298.603108	690.5999756
1299.143229	690.5999756
1299.683295	690.7999878
1300.223305	693.4000244
1300.763259	689.7999878
1301.303157	689.5999756
1301.842999	688.4000244
1302.382785	692.0
1302.922515	689.4000244
1303.462189	693.2000122
1304.001807	692.4000244
1304.541369	689.5999756
1305.080875	689.4000244
1305.620326	693.0
1306.15972	693.5999756
1306.699058	688.5999756
1307.238341	689.4000244
1307.777567	690.4000244
1308.316738	691.7999878
1308.855853	693.0
1309.394912	687.5999756
1309.933915	688.4000244
1310.472862	693.0
1311.011753	691.2000122
1311.550588	689.4000244
1312.089367	691.7999878
1312.62809	688.4000244
1313.166758	688.4000244
1313.70537	693.5999756
1314.243925	691.4000244
1314.782425	693.7999878
1315.320869	692.0
1315.859257	689.2000122
1316.397589	691.5999756
1316.935866	689.2000122
1317.474086	689.4000244
1318.012251	690.0
1318.55036	690.4000244
1319.088413	695.0
1319.62641	691.7999878
1320.164351	692.7999878
1320.702236	690.5999756
1321.240066	693.2000122
1321.777839	692.4000244
1322.315557	693.4000244
1322.853219	692.0
1323.390826	691.5999756
1323.928376	692.7999878
1324.465871	690.2000122
1325.003309	686.7999878
1325.540692	687.4000244
1326.07802	689.4000244
1326.615291	689.4000244
1327.152506	690.0
1327.689666	690.7999878
1328.22677	690.0
1328.763818	688.4000244
1329.300811	689.7999878
1329.837747	694.2000122
1330.374628	690.0
1330.911453	688.7999878
1331.448222	687.0
1331.984936	688.5999756
1332.521594	691.2000122
1333.058196	694.2000122
1333.594742	689.7999878
1334.131232	690.5999756
1334.667667	690.4000244
1335.204046	691.7999878
1335.740369	689.4000244
1336.276637	690.5999756
1336.812848	691.7999878
1337.349004	689.7999878
1337.885105	689.5999756
1338.421149	689.4000244
1338.957138	690.7999878
1339.493071	689.0
1340.028949	690.2000122
1340.56477	688.4000244
1341.100536	691.4000244
1341.636246	687.0
1342.171901	694.4000244
1342.7075	688.0
1343.243043	693.4000244
1343.77853	689.2000122
1344.313962	693.2000122
1344.849338	691.0
1345.384659	691.4000244
1345.919923	688.2000122
1346.455133	690.5999756
1346.990286	694.2000122
1347.525384	691.2000122
1348.060426	688.7999878
1348.595412	688.7999878
1349.130343	689.2000122
1349.665218	691.4000244
1350.200037	689.7999878
1350.734801	694.2000122
1351.269509	689.2000122
1351.804162	692.7999878
1352.338758	689.5999756
1352.8733	688.4000244
1353.407785	691.7999878
1353.942215	687.7999878
1354.476589	692.5999756
1355.010908	693.5999756
1355.545171	690.0
1356.079379	689.0
1356.61353	690.5999756
1357.147627	690.2000122
1357.681667	691.7999878
1358.215652	687.2000122
1358.749582	689.2000122
1359.283456	689.5999756
1359.817274	690.4000244
1360.351037	694.2000122
1360.884744	687.7999878
1361.418395	690.2000122
1361.951991	691.4000244
1362.485531	691.0
1363.019016	694.2000122
1363.552445	690.4000244
1364.085819	690.4000244
1364.619137	691.0
1365.1524	689.0
1365.685607	688.2000122
1366.218758	688.4000244
1366.751854	693.2000122
1367.284894	688.7999878
1367.817879	689.5999756
1368.350808	692.0
1368.883682	692.5999756
1369.4165	691.7999878
1369.949263	689.4000244
1370.48197	690.7999878
1371.014622	688.7999878
1371.547218	688.4000244
1372.079758	688.2000122
1372.612244	689.5999756
1373.144673	694.5999756
1373.677047	691.4000244
1374.209366	688.7999878
1374.741629	689.4000244
1375.273836	689.7999878
1375.805989	692.0
1376.338085	693.4000244
1376.870126	689.7999878
1377.402112	688.5999756
1377.934042	691.4000244
1378.465917	693.7999878
1378.997736	691.0
1379.5295	688.0
1380.061208	693.0
1380.592861	692.0
1381.124459	690.5999756
1381.656	688.7999878
1382.187487	692.5999756
1382.718918	693.5999756
1383.250294	688.2000122
1383.781614	694.7999878
1384.312879	690.0
1384.844088	689.2000122
1385.375242	690.2000122
1385.90634	691.2000122
1386.437383	693.0
1386.968371	689.7999878
1387.499303	688.0
1388.03018	690.7999878
1388.561001	690.5999756
1389.091767	706.4000244
1389.622478	728.5999756
1390.153133	700.5999756
1390.683733	690.7999878
1391.214277	689.0
1391.744766	692.4000244
1392.2752	685.2000122
1392.805578	692.0
1393.335901	687.4000244
1393.866168	692.7999878
1394.396381	690.2000122
1394.926537	689.5999756
1395.456639	694.4000244
1395.986685	688.7999878
1396.516675	690.4000244
1397.046611	691.5999756
1397.576491	690.5999756
1398.106315	691.7999878
1398.636084	691.5999756
1399.165798	691.0
1399.695457	685.7999878
1400.22506	690.0
1400.754608	689.4000244
1401.284101	694.4000244
1401.813538	689.4000244
1402.34292	686.2000122
1402.872247	691.4000244
1403.401518	689.2000122
1403.930734	691.2000122
1404.459895	691.4000244
1404.989	689.0
1405.51805	688.4000244
1406.047045	689.0
1406.575984	693.4000244
1407.104869	688.4000244
1407.633697	692.7999878
1408.162471	691.2000122
1408.691189	691.5999756
1409.219852	694.0
1409.74846	691.2000122
1410.277013	690.7999878
1410.80551	693.2000122
1411.333952	692.7999878
1411.862339	692.0
1412.39067	692.5999756
1412.918946	693.0
1413.447167	689.0
1413.975333	689.4000244
1414.503444	689.7999878
1415.031499	690.7999878
1415.559499	698.4000244
1416.087444	688.7999878
1416.615333	690.4000244
1417.143167	689.7999878
1417.670947	691.7999878
1418.19867	687.7999878
1418.726339	689.4000244
1419.253952	688.2000122
1419.781511	691.0
1420.309014	693.2000122
1420.836461	690.4000244
1421.363854	689.7999878
1421.891191	692.5999756
1422.418474	692.5999756
1422.945701	690.4000244
1423.472872	690.7999878
1423.999989	688.2000122
1424.52705	686.0
1425.054057	691.0
1425.581008	686.7999878
1426.107904	688.4000244
1426.634745	691.5999756
1427.16153	691.0
1427.688261	692.0
1428.214936	687.5999756
1428.741556	689.4000244
1429.268121	692.0
1429.794631	693.4000244
1430.321085	692.2000122
1430.847485	692.4000244
1431.373829	684.4000244
1431.900118	692.0
1432.426353	691.5999756
1432.952532	691.0
1433.478655	694.7999878
1434.004724	689.4000244
1434.530738	691.2000122
1435.056696	688.5999756
1435.5826	690.2000122
1436.108448	691.2000122
1436.634241	688.4000244
1437.159979	689.2000122
1437.685662	691.4000244
1438.21129	690.7999878
1438.736863	691.5999756
1439.262381	692.2000122
1439.787843	688.0
1440.313251	691.0
1440.838603	693.4000244
1441.3639	690.4000244
1441.889143	696.2000122
1442.41433	690.2000122
1442.939462	687.7999878
1443.464539	692.0
1443.989561	691.4000244
1444.514528	691.4000244
1445.03944	689.4000244
1445.564297	688.4000244
1446.089099	690.7999878
1446.613846	691.0
1447.138537	691.4000244
1447.663174	689.7999878
1448.187756	688.4000244
1448.712282	690.5999756
1449.236754	691.5999756
1449.761171	689.7999878
1450.285532	692.2000122
1450.809839	688.5999756
1451.33409	690.2000122
1451.858287	689.2000122
1452.382428	691.0
1452.906515	693.0
1453.430546	687.4000244
1453.954523	693.0
1454.478444	687.5999756
1455.002311	692.4000244
1455.526123	689.5999756
1456.049879	688.5999756
1456.573581	690.5999756
1457.097227	690.4000244
1457.620819	687.2000122
1458.144356	692.5999756
1458.667837	688.4000244
1459.191264	691.2000122
1459.714636	690.2000122
1460.237952	688.0
1460.761214	692.4000244
1461.284421	691.0
1461.807573	690.5999756
1462.33067	694.5999756
1462.853712	691.2000122
1463.376699	692.2000122
1463.899632	693.2000122
1464.422509	691.5999756
1464.945331	690.2000122
1465.468099	692.2000122
1465.990811	692.4000244
1466.513469	688.7999878
1467.036071	689.0
1467.558619	686.5999756
1468.081112	692.7999878
1468.60355	693.7999878
1469.125933	690.5999756
1469.648261	691.4000244
1470.170534	689.4000244
1470.692752	690.5999756
1471.214916	692.4000244
1471.737024	694.5999756
1472.259078	691.4000244
1472.781077	688.7999878
1473.303021	691.0
1473.82491	689.0
1474.346744	691.2000122
1474.868523	689.5999756
1475.390248	687.4000244
1475.911917	687.0
1476.433532	689.0
1476.955092	691.2000122
1477.476597	690.2000122
1477.998047	691.5999756
1478.519442	686.4000244
1480.083299	694.2000122
1480.604475	691.0
1481.125596	689.4000244
1481.646663	690.2000122
1482.167674	690.5999756
1482.688631	689.7999878
1483.209533	691.5999756
1483.73038	691.4000244
1484.251172	692.2000122
1484.771909	690.0
1485.292592	688.7999878
1485.81322	689.0
1486.333793	688.4000244
1486.854311	691.4000244
1487.374775	692.5999756
1487.895183	689.5999756
1488.415537	690.5999756
1488.935836	689.4000244
1489.456081	688.0
1489.97627	687.2000122
1490.496405	688.2000122
1491.016485	690.4000244
1491.536511	688.0
1492.056481	691.5999756
1492.576397	691.4000244
1493.096258	689.4000244
1493.616064	689.0
1494.135816	692.4000244
1494.655513	687.0
1495.175155	686.4000244
1495.694742	689.2000122
1496.214274	692.4000244
1496.733752	686.5999756
1497.253175	690.5999756
1497.772544	689.4000244
1498.291858	689.0
1498.811116	691.0
1499.330321	689.4000244
1499.84947	694.7999878
1500.368565	690.4000244
1500.887605	686.4000244
1501.406591	691.7999878
1501.925521	686.5999756
1502.444397	690.5999756
1502.963219	687.7999878
1503.481985	688.4000244
1504.000697	692.0
1504.519355	690.2000122
1505.037957	691.2000122
1505.556505	688.2000122
1506.074999	691.5999756
1506.593437	691.5999756
1507.111821	689.0
1507.63015	692.0
1508.148425	686.4000244
1508.666645	686.4000244
1509.18481	688.7999878
1509.702921	687.2000122
1510.220977	688.0
1510.738979	695.5999756
1511.256925	692.2000122
1511.774817	690.0
1512.292655	688.7999878
1512.810438	689.7999878
1513.328166	690.5999756
1513.84584	690.7999878
1514.363459	689.2000122
1514.881023	685.0
1515.398533	689.2000122
1515.915988	688.0
1516.433389	690.7999878
1516.950734	689.4000244
1517.468026	689.0
1517.985263	690.5999756
1518.502445	690.5999756
1519.019572	690.4000244
1519.536645	689.5999756
1520.053664	689.7999878
1520.570628	688.4000244
1521.087537	686.2000122
1521.604392	693.2000122
1522.121192	686.0
1522.637937	691.2000122
1523.154628	692.2000122
1523.671265	692.5999756
1524.187847	691.5999756
1524.704374	690.7999878
1525.220847	688.4000244
1525.737265	690.7999878
1526.253629	690.2000122
1526.769938	690.2000122
1527.286192	693.2000122
1527.802392	691.5999756
1528.318538	692.0
1528.834629	690.7999878
1529.350666	689.5999756
1529.866648	688.7999878
1530.382575	691.4000244
1530.898448	689.2000122
1531.414266	688.7999878
1531.93003	691.0
1532.44574	688.0
1532.961395	689.5999756
1533.476995	687.7999878
1533.992541	686.7999878
1534.508033	690.2000122
1535.02347	688.5999756
1535.538852	689.5999756
1536.05418	686.5999756
1536.569454	690.0
1537.084673	687.5999756
1537.599837	691.5999756
1538.114947	689.5999756
1538.630003	690.2000122
1539.145004	694.0
1539.659951	693.4000244
1540.174843	692.0
1540.689681	686.4000244
1541.204465	688.5999756
1541.719194	688.2000122
1542.233868	691.0
1542.748488	687.4000244
1543.263054	691.0
1543.777565	686.0
1544.292022	688.7999878
1544.806424	688.5999756
1545.320772	688.4000244
1545.835066	689.4000244
1546.349305	689.4000244
1546.863489	689.2000122
1547.37762	691.2000122
1547.891696	691.0
1548.405717	692.4000244
1548.919684	689.7999878
1549.433597	688.2000122
1549.947455	687.7999878
1550.461259	692.0
1550.975009	689.7999878
1551.488704	688.5999756
1552.002345	687.4000244
1552.515931	690.2000122
1553.029463	693.0
1553.542941	689.2000122
1554.056364	691.5999756
1554.569733	689.2000122
1555.083048	687.4000244
1555.596308	687.4000244
1556.109514	692.0
1556.622665	686.4000244
1557.135762	689.5999756
1557.648805	692.5999756
1558.161794	688.7999878
1558.674728	691.0
1559.187608	689.0
1559.700433	688.2000122
1560.213205	688.4000244
1560.725921	689.4000244
1561.238584	691.2000122
1561.751192	691.7999878
1562.263746	685.0
1562.776246	686.4000244
1563.288691	690.4000244
1563.801082	687.7999878
1564.313419	691.0
1564.825701	689.7999878
1565.337929	691.0
1565.850103	686.5999756
1566.362223	691.7999878
1566.874288	689.5999756
1567.386299	689.4000244
1567.898256	690.0
1568.410158	693.2000122
1568.922007	689.4000244
1569.4338	689.4000244
1569.94554	688.2000122
1570.457226	689.5999756
1570.968857	691.5999756
1571.480434	690.4000244
1571.991956	691.4000244
1572.503425	690.7999878
1573.014839	692.4000244
1573.526199	690.4000244
1574.037505	688.7999878
1574.548756	691.5999756
1575.059953	687.0
1575.571096	692.0
1576.082185	690.2000122
1576.59322	690.2000122
1577.1042	689.5999756
1577.615126	690.0
1578.125998	690.0
1578.636816	690.2000122
1579.14758	689.0
1579.658289	691.0
1580.168944	688.4000244
1580.679545	692.5999756
1581.190092	689.0
1581.700585	686.0
1582.211023	689.4000244
1582.721407	691.2000122
1583.231737	693.7999878
1583.742013	690.7999878
1584.252235	688.2000122
1584.762403	688.0
1585.272516	688.2000122
1585.782575	688.5999756
1586.292581	691.2000122
1586.802532	685.0
1587.312428	691.2000122
1587.822271	689.4000244
1588.33206	690.4000244
1588.841794	692.2000122
1589.351474	687.5999756
1589.8611	687.2000122
1590.370672	690.2000122
1590.88019	689.5999756
1591.389654	686.7999878
1591.899064	685.7999878
1592.408419	686.0
