1042.452273	703.0
1043.018714	702.5999756
1043.585098	703.2000122
1044.151424	699.4000244
1044.717692	703.7999878
1045.283903	699.4000244
1045.850056	698.0
1046.416151	698.4000244
1046.982188	696.2000122
1047.548167	701.2000122
1048.114089	696.5999756
1048.679953	699.5999756
1049.24576	699.0
1049.811509	694.4000244
1050.3772	692.4000244
1050.942833	696.0
1051.508408	694.0
1052.073926	693.4000244
1052.639387	695.7999878
1053.204789	694.0
1053.770134	690.2000122
1054.335421	694.2000122
1054.900651	692.0
1055.465823	694.2000122
1056.030937	692.7999878
1056.595993	692.5999756
1057.160992	693.4000244
1057.725934	691.0
1058.290817	691.2000122
1058.855643	691.2000122
1059.420411	694.5999756
1059.985122	690.0
1060.549775	690.4000244
1061.114371	689.2000122
1061.678908	692.0
1062.243389	690.4000244
1062.807811	696.7999878
1063.372176	696.0
1063.936483	691.0
1064.500733	690.5999756
1065.064925	690.2000122
1065.62906	690.4000244
1066.193137	692.0
1066.757156	690.4000244
1067.321118	696.0
1067.885022	693.5999756
1068.448869	691.4000244
1069.012658	694.0
1069.57639	691.4000244
1070.140063	700.2000122
1070.70368	692.2000122
1071.267239	692.5999756
1071.83074	689.7999878
1072.394184	692.5999756
1072.95757	688.2000122
1073.520899	691.5999756
1074.08417	692.5999756
1074.647383	691.5999756
1075.21054	690.0
1075.773638	692.0
1076.336679	687.7999878
1076.899663	692.2000122
1077.462589	692.7999878
1078.025457	695.0
1078.588268	692.7999878
1079.151022	691.4000244
1079.713718	689.5999756
1080.276356	689.2000122
1080.838937	692.7999878
1081.401461	691.0
1081.963927	691.4000244
1082.526336	694.4000244
1083.088687	691.2000122
1083.650981	692.7999878
1084.213217	690.0
1084.775396	690.5999756
1085.337517	692.5999756
1085.899581	692.2000122
1086.461587	690.4000244
1087.023536	691.4000244
1087.585428	690.2000122
1088.147262	688.7999878
1088.709039	693.2000122
1089.270758	689.5999756
1089.83242	688.4000244
1090.394024	689.4000244
1090.955571	688.5999756
1091.517061	689.0
1092.078493	693.7999878
1092.639868	693.4000244
1093.201185	692.7999878
1093.762445	687.2000122
1094.323648	691.4000244
1094.884793	691.2000122
1095.445881	693.4000244
1096.006911	686.5999756
1096.567884	689.0
1097.1288	697.5999756
1097.689659	686.5999756
1098.25046	692.4000244
1098.811203	689.0
1099.37189	688.7999878
1099.932518	687.7999878
1100.49309	691.7999878
1101.053604	689.4000244
1101.614061	687.7999878
1102.174461	690.0
1102.734803	688.0
1103.295088	687.5999756
1103.855316	691.7999878
1104.415486	692.7999878
1104.975599	688.0
1105.535655	688.5999756
1106.095653	691.0
1106.655594	690.4000244
1107.215478	687.0
1107.775305	694.0
1108.335074	688.4000244
1108.894786	687.5999756
1109.45444	687.7999878
1110.014038	689.0
1110.573578	692.5999756
1111.133061	687.0
1111.692486	688.2000122
1112.251854	691.2000122
1112.811165	690.4000244
1113.370419	690.4000244
1113.929616	687.2000122
1114.488755	688.7999878
1115.047837	687.7999878
1115.606862	690.5999756
1116.16583	688.0
1116.72474	691.7999878
1117.283593	692.5999756
1117.842389	686.7999878
1118.401128	688.7999878
1118.959809	690.0
1119.518433	689.0
1120.077	689.7999878
1120.63551	688.2000122
1121.193963	689.4000244
1121.752358	689.5999756
1122.310697	692.4000244
1122.868978	690.4000244
1123.427202	688.4000244
1123.985368	688.7999878
1124.543478	688.2000122
1125.10153	692.7999878
1125.659526	689.5999756
1126.217464	691.4000244
1126.775345	693.4000244
1127.333168	690.5999756
1127.890935	690.5999756
1128.448644	688.0
1129.006297	687.0
1129.563892	691.0
1130.12143	687.4000244
1130.678911	688.0
1131.236335	687.5999756
1131.793701	688.5999756
1132.351011	686.5999756
1132.908263	689.2000122
1133.465458	687.7999878
1134.022597	687.7999878
1134.579678	691.4000244
1135.136702	689.0
1135.693669	690.2000122
1136.250578	691.0
1136.807431	691.2000122
1137.364227	690.2000122
1137.920965	686.0
1138.477647	694.0
1139.034271	689.7999878
1139.590839	692.4000244
1140.147349	686.0
1140.703802	691.5999756
1141.260198	692.4000244
1141.816537	692.4000244
1142.37282	689.7999878
1142.929045	689.4000244
1143.485213	688.0
1144.041323	689.2000122
1144.597377	688.7999878
1145.153374	690.2000122
1145.709314	689.7999878
1146.265197	687.7999878
1146.821023	693.7999878
1147.376792	687.0
1147.932503	693.4000244
1148.488158	690.2000122
1149.043756	690.7999878
1149.599297	685.0
1150.154781	691.2000122
1150.710207	691.0
1151.265577	692.5999756
1151.82089	692.0
1152.376146	688.5999756
1152.931345	691.7999878
1153.486487	687.2000122
1154.041572	689.4000244
1154.5966	688.2000122
1155.151571	688.2000122
1155.706485	689.2000122
1156.261342	688.2000122
1156.816142	691.4000244
1157.370885	688.2000122
1157.925572	689.4000244
1158.480201	688.7999878
1159.034774	690.2000122
1159.589289	691.5999756
1160.143748	687.4000244
1160.698149	692.2000122
1161.252494	690.0
1161.806782	690.2000122
1162.361013	692.0
1162.915187	689.4000244
1163.469304	691.2000122
1164.023364	685.7999878
1164.577368	687.5999756
1165.131314	689.7999878
1165.685204	687.7999878
1166.239036	693.0
1166.792812	688.2000122
1167.346531	694.5999756
1167.900193	690.7999878
1168.453798	691.2000122
1169.007347	689.0
1169.560838	693.2000122
1170.114273	689.4000244
1170.66765	694.4000244
1171.220971	690.2000122
1171.774235	687.2000122
1172.327443	690.0
1172.880593	686.7999878
1173.433687	686.2000122
1173.986723	689.7999878
1174.539703	691.5999756
1175.092626	694.2000122
1175.645493	687.4000244
1176.198302	691.4000244
1176.751055	692.0
1177.303751	687.0
1177.85639	691.7999878
1178.408972	689.7999878
1178.961498	695.0
1179.513966	688.7999878
1180.066378	686.0
1180.618733	692.7999878
1181.171032	687.0
1181.723273	688.0
1182.275458	692.4000244
1182.827586	692.7999878
1183.379657	691.2000122
1183.931672	691.2000122
1184.48363	690.5999756
1185.035531	689.0
1185.587375	692.2000122
1186.139162	693.4000244
1186.690893	691.5999756
1187.242567	694.0
1187.794184	688.2000122
1188.345745	688.4000244
1188.897249	695.4000244
1189.448696	690.5999756
1190.000086	689.5999756
1190.55142	690.0
1191.102697	689.7999878
1191.653918	692.4000244
1192.205081	687.2000122
1192.756188	689.2000122
1193.307238	704.5999756
1193.858232	686.5999756
1194.409169	691.5999756
1194.960049	690.7999878
1195.510872	688.7999878
1196.061639	689.2000122
1196.612349	690.2000122
1197.163003	687.2000122
1197.713599	686.5999756
1198.264139	687.5999756
1198.814623	688.2000122
1199.36505	691.4000244
1199.91542	690.2000122
1200.465734	688.2000122
1201.01599	690.7999878
1201.566191	687.0
1202.116334	691.0
1202.666421	691.2000122
1203.216452	695.0
1203.766425	691.2000122
1204.316343	688.5999756
1204.866203	691.2000122
1205.416007	693.2000122
1205.965754	688.0
1206.515445	686.7999878
1207.065079	690.7999878
1207.614657	692.7999878
1208.164177	690.5999756
1208.713642	692.2000122
1209.26305	691.5999756
1209.812401	691.2000122
1210.361695	689.2000122
1210.910933	687.2000122
1211.460115	692.0
1212.00924	688.7999878
1212.558308	689.0
1213.10732	691.4000244
1213.656275	688.5999756
1214.205174	689.5999756
1214.754016	692.2000122
1215.302801	693.0
1215.85153	691.5999756
1216.400203	693.4000244
1216.948819	690.2000122
1217.497378	689.7999878
1218.045881	689.0
1218.594327	692.5999756
1219.142717	691.2000122
1219.691051	693.2000122
1220.239327	691.2000122
1220.787548	693.0
1221.335712	691.4000244
1221.883819	690.0
1222.43187	690.5999756
1222.979864	693.7999878
1223.527802	693.4000244
1224.075683	689.7999878
1224.623508	692.2000122
1225.171277	691.5999756
1225.718989	686.4000244
1226.266644	689.7999878
1226.814243	692.7999878
1227.361786	693.5999756
1227.909272	691.7999878
1228.456702	687.7999878
1229.004075	689.4000244
1229.551392	693.4000244
1230.098652	692.5999756
1230.645856	691.5999756
1231.193003	692.7999878
1231.740094	692.7999878
1232.287129	693.2000122
1232.834107	689.5999756
1233.381029	690.4000244
1233.927894	691.0
1234.474703	691.5999756
1235.021455	691.5999756
1235.568151	691.0
1236.114791	688.5999756
1236.661374	692.5999756
1237.207901	695.2000122
1237.754372	691.4000244
1238.300786	692.5999756
1238.847144	693.7999878
1239.393445	692.5999756
1239.93969	691.4000244
1240.485879	690.5999756
1241.032011	691.7999878
1241.578087	694.0
1242.124106	688.5999756
1242.67007	694.7999878
1243.215976	690.7999878
1243.761827	694.5999756
1244.307621	689.0
1244.853359	693.4000244
1245.39904	693.7999878
1245.944665	691.4000244
1246.490234	693.2000122
1247.035746	695.2000122
1247.581203	690.2000122
1248.126602	693.5999756
1248.671946	697.2000122
1249.217233	692.5999756
1249.762464	693.5999756
1250.307638	694.7999878
1250.852757	697.2000122
1251.397819	693.5999756
1251.942824	694.0
1252.487774	691.7999878
1253.032667	695.0
1253.577503	695.0
1254.122284	694.2000122
1254.667008	693.5999756
1255.211676	693.5999756
1255.756288	695.7999878
1256.300843	695.2000122
1256.845342	697.5999756
1257.389785	695.0
1257.934172	691.0
1258.478502	697.2000122
1259.022776	697.0
1259.566994	703.7999878
1260.111156	711.4000244
1260.655261	697.7999878
1261.199311	697.2000122
1261.743304	698.4000244
1262.28724	699.7999878
1262.831121	701.7999878
1263.374945	706.7999878
1263.918713	714.5999756
1264.462425	728.7999878
1265.006081	757.2000122
1265.54968	766.7999878
1266.093223	737.0
1266.636711	719.0
1267.180141	706.2000122
1267.723516	696.7999878
1268.266835	700.2000122
1268.810097	695.5999756
1269.353303	699.5999756
1269.896453	700.4000244
1270.439547	693.5999756
1270.982584	696.7999878
1271.525566	696.4000244
1272.068491	697.0
1272.61136	698.5999756
1273.154173	690.5999756
1273.69693	693.2000122
1274.239631	695.2000122
1274.782275	696.4000244
1275.324864	698.4000244
1275.867396	695.5999756
1276.409872	695.7999878
1276.952292	698.5999756
1277.494656	694.7999878
1278.036964	696.5999756
1278.579215	700.0
1279.121411	695.2000122
1279.66355	697.5999756
1280.205634	699.2000122
1280.747661	701.0
1281.289632	704.7999878
1281.831547	704.0
1282.373406	711.7999878
1282.915209	724.2000122
1283.456955	743.2000122
1283.998646	789.5999756
1284.540281	924.7999878
1285.081859	1358.199951
1285.623381	1852.0
1286.164848	1322.599976
1286.706258	871.4000244
1287.247612	760.5999756
1287.788911	729.0
1288.330153	715.4000244
1288.871339	712.4000244
1289.412469	704.5999756
1289.953543	703.4000244
1290.494561	703.2000122
1291.035523	699.7999878
1291.576428	698.4000244
1292.117278	698.0
1292.658072	699.5999756
1293.19881	695.4000244
1293.739492	696.7999878
1294.280118	694.7999878
1294.820687	696.2000122
1295.361201	697.2000122
1295.901659	695.4000244
1296.442061	692.5999756
1296.982406	699.0
1297.522696	692.0
1298.06293	696.4000244
1298.603108	691.0
1299.143229	696.0
1299.683295	694.5999756
1300.223305	693.2000122
1300.763259	696.0
1301.303157	695.4000244
1301.842999	693.7999878
1302.382785	691.4000244
1302.922515	693.0
1303.462189	699.5999756
1304.001807	693.5999756
1304.541369	693.0
1305.080875	696.5999756
1305.620326	693.7999878
1306.15972	693.2000122
1306.699058	697.0
1307.238341	693.5999756
1307.777567	697.2000122
1308.316738	693.5999756
1308.855853	696.2000122
1309.394912	696.0
1309.933915	694.4000244
1310.472862	695.0
1311.011753	694.7999878
1311.550588	692.4000244
1312.089367	699.7999878
1312.62809	692.0
1313.166758	697.0
1313.70537	694.7999878
1314.243925	695.5999756
1314.782425	693.4000244
1315.320869	698.5999756
1315.859257	693.2000122
1316.397589	696.0
1316.935866	692.0
1317.474086	693.0
1318.012251	694.2000122
1318.55036	695.2000122
1319.088413	692.5999756
1319.62641	696.4000244
1320.164351	696.0
1320.702236	692.7999878
1321.240066	692.5999756
1321.777839	696.5999756
1322.315557	694.5999756
1322.853219	693.7999878
1323.390826	690.7999878
1323.928376	698.0
1324.465871	691.5999756
1325.003309	692.7999878
1325.540692	695.7999878
1326.07802	690.5999756
1326.615291	694.2000122
1327.152506	694.4000244
1327.689666	693.2000122
1328.22677	693.2000122
1328.763818	693.4000244
1329.300811	694.4000244
1329.837747	687.0
1330.374628	698.0
1330.911453	695.0
1331.448222	693.2000122
1331.984936	698.0
1332.521594	692.4000244
1333.058196	691.7999878
1333.594742	692.0
1334.131232	692.2000122
1334.667667	693.2000122
1335.204046	692.2000122
1335.740369	690.5999756
1336.276637	693.4000244
1336.812848	695.5999756
1337.349004	692.5999756
1337.885105	698.4000244
1338.421149	693.4000244
1338.957138	695.2000122
1339.493071	692.0
1340.028949	694.4000244
1340.56477	694.4000244
1341.100536	694.2000122
1341.636246	691.0
1342.171901	691.5999756
1342.7075	693.7999878
1343.243043	695.5999756
1343.77853	692.2000122
1344.313962	692.4000244
1344.849338	693.5999756
1345.384659	692.2000122
1345.919923	692.5999756
1346.455133	695.0
1346.990286	696.5999756
1347.525384	694.4000244
1348.060426	693.7999878
1348.595412	695.7999878
1349.130343	693.5999756
1349.665218	693.0
1350.200037	693.0
1350.734801	696.5999756
1351.269509	695.2000122
1351.804162	693.4000244
1352.338758	692.5999756
1352.8733	699.0
1353.407785	693.5999756
1353.942215	694.7999878
1354.476589	692.2000122
1355.010908	688.7999878
1355.545171	694.7999878
1356.079379	693.5999756
1356.61353	696.7999878
1357.147627	695.4000244
1357.681667	696.4000244
1358.215652	693.7999878
1358.749582	694.2000122
1359.283456	694.5999756
1359.817274	694.4000244
1360.351037	694.2000122
1360.884744	697.2000122
1361.418395	694.0
1361.951991	694.2000122
1362.485531	694.7999878
1363.019016	692.2000122
1363.552445	694.0
1364.085819	695.4000244
1364.619137	700.0
1365.1524	693.2000122
1365.685607	699.7999878
1366.218758	696.7999878
1366.751854	701.5999756
1367.284894	697.0
1367.817879	698.4000244
1368.350808	699.2000122
1368.883682	698.2000122
1369.4165	696.4000244
1369.949263	700.2000122
1370.48197	726.5999756
1371.014622	725.0
1371.547218	697.7999878
1372.079758	697.7999878
1372.612244	695.0
1373.144673	697.2000122
1373.677047	696.0
1374.209366	692.7999878
1374.741629	695.5999756
1375.273836	697.5999756
1375.805989	699.5999756
1376.338085	695.7999878
1376.870126	697.7999878
1377.402112	700.0
1377.934042	697.0
1378.465917	698.2000122
1378.997736	698.7999878
1379.5295	695.7999878
1380.061208	700.5999756
1380.592861	699.0
1381.124459	703.2000122
1381.656	695.0
1382.187487	704.2000122
1382.718918	701.5999756
1383.250294	704.2000122
1383.781614	702.7999878
1384.312879	704.4000244
1384.844088	710.2000122
1385.375242	712.4000244
1385.90634	720.4000244
1386.437383	740.7999878
1386.968371	761.5999756
1387.499303	827.7999878
1388.03018	1062.0
1388.561001	2069.600098
1389.091767	2766.199951
1389.622478	1447.599976
1390.153133	880.2000122
1390.683733	767.4000244
1391.214277	735.7999878
1391.744766	717.7999878
1392.2752	714.7999878
1392.805578	707.7999878
1393.335901	707.7999878
1393.866168	704.5999756
1394.396381	704.0
1394.926537	703.0
1395.456639	700.5999756
1395.986685	694.2000122
1396.516675	698.2000122
1397.046611	698.4000244
1397.576491	699.7999878
1398.106315	701.0
1398.636084	697.0
1399.165798	697.2000122
1399.695457	699.7999878
1400.22506	697.4000244
1400.754608	699.4000244
1401.284101	694.4000244
1401.813538	696.0
1402.34292	700.5999756
1402.872247	697.0
1403.401518	698.7999878
1403.930734	698.4000244
1404.459895	698.2000122
1404.989	703.2000122
1405.51805	698.4000244
1406.047045	698.7999878
1406.575984	703.4000244
1407.104869	699.5999756
1407.633697	704.2000122
1408.162471	708.2000122
1408.691189	715.2000122
1409.219852	737.5999756
1409.74846	778.7999878
1410.277013	838.7999878
1410.80551	802.5999756
1411.333952	732.4000244
1411.862339	714.2000122
1412.39067	702.0
1412.918946	701.2000122
1413.447167	701.7999878
1413.975333	697.5999756
1414.503444	697.2000122
1415.031499	696.7999878
1415.559499	706.0
1416.087444	697.0
1416.615333	697.4000244
1417.143167	694.7999878
1417.670947	695.7999878
1418.19867	700.4000244
1418.726339	695.7999878
1419.253952	697.5999756
1419.781511	696.5999756
1420.309014	695.0
1420.836461	693.4000244
1421.363854	695.2000122
1421.891191	690.2000122
1422.418474	693.4000244
1422.945701	691.2000122
1423.472872	696.2000122
1423.999989	694.5999756
1424.52705	696.7999878
1425.054057	694.7999878
1425.581008	694.0
1426.107904	699.5999756
1426.634745	700.0
1427.16153	697.0
1427.688261	696.2000122
1428.214936	698.0
1428.741556	690.2000122
1429.268121	694.2000122
1429.794631	697.0
1430.321085	695.5999756
1430.847485	695.0
1431.373829	691.5999756
1431.900118	692.5999756
1432.426353	694.0
1432.952532	688.0
1433.478655	695.4000244
1434.004724	692.5999756
1434.530738	690.5999756
1435.056696	690.4000244
1435.5826	691.4000244
1436.108448	692.5999756
1436.634241	694.0
1437.159979	692.2000122
1437.685662	692.2000122
1438.21129	691.4000244
1438.736863	692.0
1439.262381	691.4000244
1439.787843	691.2000122
1440.313251	690.0
1440.838603	691.4000244
1441.3639	690.4000244
1441.889143	690.2000122
1442.41433	692.2000122
1442.939462	697.2000122
1443.464539	692.4000244
1443.989561	688.4000244
1444.514528	694.2000122
1445.03944	690.0
1445.564297	695.2000122
1446.089099	693.7999878
1446.613846	692.5999756
1447.138537	690.2000122
1447.663174	686.5999756
1448.187756	689.2000122
1448.712282	686.5999756
1449.236754	691.5999756
1449.761171	692.7999878
1450.285532	692.4000244
1450.809839	687.0
1451.33409	691.2000122
1451.858287	690.4000244
1452.382428	693.4000244
1452.906515	689.0
1453.430546	685.7999878
1453.954523	691.5999756
1454.478444	689.5999756
1455.002311	690.4000244
1455.526123	688.0
1456.049879	689.7999878
1456.573581	692.2000122
1457.097227	693.5999756
1457.620819	690.7999878
1458.144356	691.0
1458.667837	693.5999756
1459.191264	691.0
1459.714636	687.2000122
1460.237952	692.0
1460.761214	689.7999878
1461.284421	690.4000244
1461.807573	693.2000122
1462.33067	686.2000122
1462.853712	690.2000122
1463.376699	692.5999756
1463.899632	688.5999756
1464.422509	688.2000122
1464.945331	692.2000122
1465.468099	690.4000244
1465.990811	693.7999878
1466.513469	691.2000122
1467.036071	687.5999756
1467.558619	691.2000122
1468.081112	690.7999878
1468.60355	689.4000244
1469.125933	690.5999756
1469.648261	689.4000244
1470.170534	691.0
1470.692752	687.7999878
1471.214916	689.7999878
1471.737024	690.5999756
1472.259078	691.4000244
1472.781077	689.0
1473.303021	688.7999878
1473.82491	687.2000122
1474.346744	688.4000244
1474.868523	688.4000244
1475.390248	689.4000244
1475.911917	687.7999878
1476.433532	687.7999878
1476.955092	688.7999878
1477.476597	689.2000122
1477.998047	691.7999878
1478.519442	688.7999878
1479.040783	689.2000122
1479.562068	690.7999878
1480.083299	691.2000122
1480.604475	687.5999756
1481.125596	693.4000244
1481.646663	693.0
1482.167674	687.7999878
1482.688631	690.4000244
1483.209533	690.2000122
1483.73038	685.7999878
1484.251172	688.4000244
1484.771909	688.0
1485.292592	685.2000122
1485.81322	692.2000122
1486.333793	687.2000122
1486.854311	690.7999878
1487.374775	686.5999756
1487.895183	688.2000122
1488.415537	690.2000122
1488.935836	689.2000122
1489.456081	686.4000244
1489.97627	691.4000244
1490.496405	688.0
1491.016485	687.2000122
1491.536511	690.4000244
1492.056481	686.7999878
1492.576397	688.7999878
1493.096258	684.5999756
1493.616064	688.7999878
1494.135816	687.4000244
1494.655513	692.4000244
1495.175155	688.7999878
1495.694742	689.2000122
1496.214274	690.5999756
1496.733752	688.7999878
1497.253175	686.0
1497.772544	688.7999878
1498.291858	688.5999756
1498.811116	687.0
1499.330321	689.0
1499.84947	698.4000244
1500.368565	688.2000122
1500.887605	690.0
1501.406591	686.0
1501.925521	688.2000122
1502.444397	687.0
1502.963219	686.7999878
1503.481985	688.4000244
1504.000697	694.4000244
1504.519355	687.4000244
1505.037957	684.7999878
1505.556505	688.0
1506.074999	690.0
1506.593437	686.2000122
1507.111821	687.0
1507.63015	686.0
1508.148425	688.5999756
1508.666645	689.0
1509.18481	687.2000122
1509.702921	690.0
1510.220977	690.0
1510.738979	697.5999756
1511.256925	687.2000122
1511.774817	689.5999756
1512.292655	688.5999756
1512.810438	688.0
1513.328166	684.0
1513.84584	690.0
1514.363459	687.7999878
1514.881023	689.5999756
1515.398533	690.7999878
1515.915988	689.4000244
1516.433389	690.5999756
1516.950734	688.5999756
1517.468026	688.0
1517.985263	687.0
1518.502445	687.2000122
1519.019572	690.5999756
1519.536645	690.4000244
1520.053664	690.7999878
1520.570628	689.2000122
1521.087537	687.5999756
1521.604392	690.0
1522.121192	690.0
1522.637937	689.0
1523.154628	685.2000122
1523.671265	688.2000122
1524.187847	689.7999878
1524.704374	690.4000244
1525.220847	686.2000122
1525.737265	690.0
1526.253629	689.4000244
1526.769938	688.0
1527.286192	689.0
1527.802392	691.4000244
1528.318538	686.2000122
1528.834629	688.7999878
1529.350666	686.7999878
1529.866648	691.5999756
1530.382575	688.5999756
1530.898448	689.0
1531.414266	690.4000244
1531.93003	692.0
1532.44574	685.5999756
1532.961395	688.4000244
1533.476995	688.0
1533.992541	688.4000244
1534.508033	688.2000122
1535.02347	691.2000122
1535.538852	686.0
1536.05418	690.7999878
1536.569454	689.4000244
1537.084673	686.5999756
1537.599837	687.5999756
1538.114947	686.5999756
1538.630003	688.4000244
1539.145004	691.5999756
1539.659951	688.4000244
1540.174843	688.2000122
1540.689681	691.5999756
1541.204465	689.0
1541.719194	690.4000244
1542.233868	689.5999756
1542.748488	690.0
1543.263054	688.5999756
1543.777565	686.0
1544.292022	688.2000122
1544.806424	686.4000244
1545.320772	690.0
1545.835066	688.4000244
1546.349305	686.2000122
1546.863489	689.4000244
1547.37762	688.0
1547.891696	687.0
1548.405717	684.2000122
1548.919684	690.4000244
1549.433597	688.7999878
1549.947455	687.4000244
1550.461259	691.5999756
1550.975009	689.5999756
1551.488704	686.0
1552.002345	686.4000244
1552.515931	688.0
1553.029463	691.5999756
1553.542941	684.7999878
1554.056364	690.4000244
1554.569733	688.7999878
1555.083048	690.4000244
1555.596308	682.4000244
1556.109514	691.5999756
1556.622665	687.4000244
1557.135762	691.0
1557.648805	692.7999878
1558.161794	690.4000244
1558.674728	689.5999756
1559.187608	689.2000122
1559.700433	687.5999756
1560.213205	686.7999878
1560.725921	691.2000122
1561.238584	687.2000122
1561.751192	687.5999756
1562.263746	688.4000244
1562.776246	689.2000122
1563.288691	687.2000122
1563.801082	688.5999756
1564.313419	687.5999756
1564.825701	689.5999756
1565.337929	690.2000122
1565.850103	692.2000122
1566.362223	691.0
1566.874288	688.0
1567.386299	687.2000122
1567.898256	689.4000244
1568.410158	690.4000244
1568.922007	687.5999756
1569.4338	688.7999878
1569.94554	691.5999756
1570.457226	689.0
1570.968857	689.0
1571.480434	689.4000244
1571.991956	694.4000244
1572.503425	687.7999878
1573.014839	689.5999756
1573.526199	687.0
1574.037505	685.2000122
1574.548756	688.2000122
1575.059953	689.7999878
1575.571096	690.5999756
1576.082185	687.4000244
1576.59322	688.2000122
1577.1042	689.7999878
1577.615126	686.2000122
1578.125998	691.5999756
1578.636816	690.4000244
1579.14758	688.5999756
1579.658289	685.4000244
1580.168944	687.0
1580.679545	687.7999878
1581.190092	686.7999878
1581.700585	689.0
1582.211023	689.4000244
1582.721407	688.5999756
1583.231737	689.5999756
1583.742013	692.2000122
1584.252235	690.2000122
1584.762403	691.2000122
1585.272516	686.5999756
1586.802532	689.0
1587.312428	690.4000244
1587.822271	688.4000244
1588.33206	689.5999756
1588.841794	688.2000122
1589.351474	686.5999756
1589.8611	687.0
1590.370672	687.2000122
1590.88019	688.0
1591.389654	688.5999756
1591.899064	686.5999756
1592.408419	684.7999878
