1042.452273	883.2000122
1043.018714	880.0
1043.585098	882.2000122
1044.151424	883.5999756
1044.717692	880.2000122
1045.283903	879.0
1045.850056	882.0
1046.416151	883.7999878
1046.982188	879.0
1047.548167	877.2000122
1048.114089	873.5999756
1048.679953	876.7999878
1049.24576	869.5999756
1049.811509	870.5999756
1050.3772	872.5999756
1050.942833	873.0
1051.508408	864.2000122
1052.073926	868.2000122
1052.639387	869.4000244
1053.204789	864.5999756
1053.770134	864.0
1054.335421	865.0
1054.900651	872.0
1055.465823	857.2000122
1056.030937	869.0
1056.595993	864.5999756
1057.160992	863.4000244
1057.725934	861.5999756
1058.290817	867.7999878
1058.855643	860.2000122
1059.420411	867.4000244
1059.985122	863.2000122
1060.549775	858.4000244
1061.114371	860.7999878
1061.678908	861.0
1062.243389	858.0
1062.807811	858.0
1063.372176	860.5999756
1063.936483	865.0
1064.500733	859.5999756
1065.064925	859.0
1065.62906	865.5999756
1066.193137	864.0
1066.757156	846.4000244
1067.321118	856.0
1067.885022	860.5999756
1068.448869	856.4000244
1069.012658	868.4000244
1069.57639	866.5999756
1070.140063	862.5999756
1070.70368	853.4000244
1071.267239	856.5999756
1071.83074	857.7999878
1072.394184	851.4000244
1072.95757	847.0
1073.520899	858.2000122
1074.08417	867.2000122
1074.647383	850.4000244
1075.21054	858.2000122
1075.773638	859.0
1076.336679	859.4000244
1076.899663	859.0
1077.462589	860.7999878
1078.025457	861.0
1078.588268	855.2000122
1079.151022	865.4000244
1079.713718	858.0
1080.276356	852.7999878
1080.838937	862.4000244
1081.401461	862.2000122
1081.963927	864.0
1082.526336	859.4000244
1083.088687	860.2000122
1083.650981	863.0
1084.213217	857.7999878
1084.775396	859.2000122
1085.337517	857.2000122
1085.899581	862.5999756
1086.461587	862.5999756
1087.023536	858.0
1087.585428	858.5999756
1088.147262	855.7999878
1088.709039	861.7999878
1089.270758	861.4000244
1089.83242	859.0
1090.394024	857.2000122
1090.955571	861.7999878
1091.517061	856.7999878
1092.078493	858.5999756
1092.639868	861.5999756
1093.201185	858.4000244
1093.762445	855.0
1094.323648	862.4000244
1094.884793	860.5999756
1095.445881	856.7999878
1096.006911	858.2000122
1096.567884	851.5999756
1097.1288	865.7999878
1097.689659	857.7999878
1098.25046	860.4000244
1098.811203	853.0
1099.37189	854.2000122
1099.932518	861.2000122
1100.49309	861.0
1101.053604	857.0
1101.614061	857.4000244
1102.174461	863.7999878
1102.734803	866.2000122
1103.295088	862.0
1103.855316	867.7999878
1104.415486	858.7999878
1104.975599	852.4000244
1105.535655	869.0
1106.095653	857.5999756
1106.655594	859.7999878
1107.215478	857.4000244
1107.775305	861.4000244
1108.335074	853.0
1108.894786	858.4000244
1109.45444	858.5999756
1110.014038	855.2000122
1110.573578	850.4000244
1111.133061	861.0
1111.692486	856.5999756
1112.251854	856.5999756
1112.811165	855.2000122
1113.370419	860.2000122
1113.929616	857.7999878
1114.488755	862.2000122
1115.047837	853.5999756
1115.606862	862.0
1116.16583	853.4000244
1116.72474	859.0
1117.283593	860.4000244
1117.842389	862.2000122
1118.401128	859.4000244
1118.959809	861.7999878
1119.518433	860.7999878
1120.077	856.5999756
1120.63551	858.7999878
1121.193963	857.0
1121.752358	857.4000244
1122.310697	857.7999878
1122.868978	858.5999756
1123.427202	871.0
1123.985368	854.5999756
1124.543478	859.2000122
1125.10153	856.5999756
1125.659526	857.5999756
1126.217464	856.0
1126.775345	861.0
1127.333168	863.4000244
1127.890935	866.7999878
1128.448644	861.7999878
1129.006297	864.2000122
1129.563892	852.4000244
1130.12143	856.7999878
1130.678911	860.7999878
1131.236335	851.4000244
1131.793701	858.4000244
1132.351011	862.0
1132.908263	858.0
1133.465458	863.0
1134.022597	860.7999878
1134.579678	865.0
1135.136702	851.4000244
1135.693669	868.0
1136.250578	861.7999878
1136.807431	866.4000244
1137.364227	863.2000122
1137.920965	859.0
1138.477647	858.4000244
1139.034271	861.5999756
1139.590839	856.4000244
1140.147349	859.7999878
1140.703802	864.0
1141.260198	854.2000122
1141.816537	858.0
1142.37282	858.4000244
1142.929045	859.7999878
1143.485213	864.0
1144.041323	862.4000244
1144.597377	866.5999756
1145.153374	869.7999878
1145.709314	867.0
1146.265197	871.4000244
1146.821023	858.5999756
1147.376792	863.0
1147.932503	856.5999756
1148.488158	857.0
1149.043756	860.4000244
1149.599297	860.4000244
1150.154781	858.2000122
1150.710207	866.7999878
1151.265577	861.7999878
1151.82089	863.0
1152.376146	869.2000122
1152.931345	862.5999756
1153.486487	859.2000122
1154.041572	864.7999878
1154.5966	863.0
1155.151571	859.2000122
1155.706485	862.4000244
1156.261342	866.4000244
1156.816142	869.4000244
1157.370885	863.2000122
1157.925572	866.4000244
1158.480201	864.0
1159.034774	868.2000122
1159.589289	862.7999878
1160.143748	861.4000244
1160.698149	873.5999756
1161.252494	862.2000122
1161.806782	872.4000244
1162.361013	864.5999756
1162.915187	862.2000122
1163.469304	867.7999878
1164.023364	871.2000122
1164.577368	867.4000244
1165.131314	864.5999756
1165.685204	866.0
1166.239036	862.0
1166.792812	872.2000122
1167.346531	868.5999756
1167.900193	872.2000122
1168.453798	864.4000244
1169.007347	859.2000122
1169.560838	863.0
1170.114273	866.4000244
1170.66765	868.5999756
1171.220971	869.0
1171.774235	860.4000244
1172.327443	863.4000244
1172.880593	870.5999756
1173.433687	863.7999878
1173.986723	867.5999756
1174.539703	867.0
1175.092626	865.5999756
1175.645493	867.4000244
1176.198302	869.0
1176.751055	874.4000244
1177.303751	863.7999878
1177.85639	873.0
1178.408972	855.0
1178.961498	867.0
1179.513966	867.5999756
1180.066378	871.7999878
1180.618733	866.0
1181.171032	858.2000122
1181.723273	863.0
1182.275458	855.5999756
1182.827586	861.2000122
1183.379657	860.4000244
1183.931672	862.5999756
1184.48363	873.7999878
1185.035531	871.4000244
1185.587375	876.5999756
1186.139162	866.7999878
1186.690893	867.4000244
1187.242567	860.5999756
1187.794184	866.5999756
1188.345745	874.7999878
1188.897249	870.5999756
1189.448696	864.5999756
1190.000086	866.5999756
1190.55142	863.5999756
1191.102697	863.0
1191.653918	866.5999756
1192.205081	866.7999878
1192.756188	871.7999878
1193.307238	881.5999756
1193.858232	861.7999878
1194.409169	865.2000122
1194.960049	871.5999756
1195.510872	861.4000244
1196.061639	864.7999878
1196.612349	864.7999878
1197.163003	863.2000122
1197.713599	869.4000244
1198.264139	860.2000122
1198.814623	866.5999756
1199.36505	868.2000122
1199.91542	870.4000244
1200.465734	862.4000244
1201.01599	865.0
1201.566191	870.2000122
1202.116334	866.5999756
1202.666421	862.0
1203.216452	866.5999756
1203.766425	865.5999756
1204.316343	861.7999878
1204.866203	870.2000122
1205.416007	867.4000244
1205.965754	857.2000122
1206.515445	861.0
1207.065079	863.7999878
1207.614657	866.5999756
1208.713642	876.5999756
1209.26305	856.2000122
1209.812401	864.2000122
1210.361695	865.2000122
1210.910933	864.2000122
1211.460115	870.5999756
1212.00924	871.2000122
1212.558308	867.7999878
1213.10732	865.2000122
1213.656275	866.2000122
1214.205174	867.4000244
1214.754016	865.7999878
1215.302801	870.0
1215.85153	873.0
1216.400203	861.7999878
1216.948819	861.5999756
1217.497378	862.2000122
1218.045881	864.5999756
1218.594327	856.2000122
1219.142717	870.4000244
1219.691051	864.5999756
1220.239327	860.7999878
1220.787548	872.4000244
1221.335712	872.0
1221.883819	865.0
1222.43187	866.2000122
1222.979864	859.5999756
1223.527802	867.4000244
1224.075683	871.7999878
1224.623508	869.5999756
1225.171277	863.4000244
1225.718989	860.5999756
1226.266644	871.5999756
1226.814243	866.7999878
1227.361786	871.5999756
1227.909272	870.2000122
1228.456702	865.5999756
1229.004075	871.5999756
1229.551392	875.2000122
1230.098652	870.4000244
1230.645856	863.0
1231.193003	870.2000122
1231.740094	868.0
1232.287129	873.4000244
1232.834107	864.0
1233.381029	861.0
1233.927894	863.5999756
1234.474703	868.7999878
1235.021455	875.5999756
1235.568151	867.5999756
1236.114791	880.4000244
1236.661374	873.2000122
1237.207901	868.5999756
1237.754372	874.5999756
1238.300786	872.2000122
1238.847144	871.2000122
1239.393445	870.4000244
1239.93969	869.0
1240.485879	875.2000122
1241.032011	872.4000244
1241.578087	871.7999878
1242.124106	862.2000122
1242.67007	866.2000122
1243.215976	875.2000122
1243.761827	875.0
1244.307621	870.7999878
1244.853359	875.2000122
1245.39904	883.0
1245.944665	865.2000122
1246.490234	869.0
1247.035746	870.7999878
1247.581203	869.2000122
1248.126602	868.2000122
1248.671946	870.5999756
1249.217233	872.2000122
1249.762464	882.0
1250.307638	868.4000244
1250.852757	866.0
1251.397819	873.2000122
1251.942824	869.4000244
1252.487774	870.2000122
1253.032667	873.4000244
1253.577503	875.0
1254.122284	870.7999878
1254.667008	868.4000244
1255.211676	871.7999878
1255.756288	866.7999878
1256.300843	869.7999878
1256.845342	874.2000122
1257.389785	877.4000244
1257.934172	875.5999756
1258.478502	881.2000122
1259.022776	872.0
1259.566994	877.0
1260.111156	885.4000244
1260.655261	880.5999756
1261.199311	875.4000244
1261.743304	869.0
1262.28724	873.4000244
1262.831121	876.0
1263.374945	879.2000122
1263.918713	876.7999878
1264.462425	884.2000122
1265.006081	898.4000244
1265.54968	905.2000122
1266.093223	894.2000122
1266.636711	884.4000244
1267.180141	878.2000122
1267.723516	870.0
1268.266835	881.5999756
1268.810097	876.0
1269.353303	871.7999878
1269.896453	881.4000244
1270.439547	871.5999756
1270.982584	875.4000244
1271.525566	879.2000122
1272.068491	881.0
1272.61136	881.5999756
1273.154173	880.4000244
1273.69693	885.4000244
1274.239631	875.7999878
1274.782275	885.4000244
1275.324864	881.5999756
1275.867396	885.2000122
1276.409872	876.7999878
1276.952292	878.5999756
1277.494656	884.7999878
1278.036964	876.5999756
1278.579215	876.2000122
1279.121411	880.0
1279.66355	874.0
1280.205634	880.0
1280.747661	889.7999878
1281.289632	872.7999878
1281.831547	889.7999878
1282.373406	880.5999756
1282.915209	890.4000244
1283.456955	889.4000244
1283.998646	905.2000122
1284.540281	943.7999878
1285.081859	1074.599976
1285.623381	1270.800049
1286.164848	1131.800049
1286.706258	948.2000122
1287.247612	904.2000122
1287.788911	900.5999756
1288.330153	886.0
1288.871339	890.0
1289.412469	882.2000122
1289.953543	885.2000122
1290.494561	881.2000122
1291.035523	878.0
1291.576428	887.7999878
1292.117278	877.2000122
1292.658072	880.7999878
1293.19881	878.5999756
1293.739492	877.5999756
1294.280118	876.2000122
1294.820687	880.0
1295.361201	888.0
1295.901659	876.7999878
1296.442061	875.4000244
1296.982406	882.4000244
1297.522696	884.0
1298.06293	885.2000122
1298.603108	875.5999756
1299.143229	879.7999878
1299.683295	883.7999878
1300.223305	880.4000244
1300.763259	888.2000122
1301.303157	879.0
1301.842999	881.0
1302.382785	878.7999878
1302.922515	878.4000244
1303.462189	877.5999756
1304.001807	875.4000244
1304.541369	875.5999756
1305.080875	876.0
1305.620326	879.5999756
1306.15972	870.7999878
1306.699058	875.0
1307.238341	879.5999756
1307.777567	881.4000244
1308.316738	882.0
1308.855853	879.7999878
1309.394912	877.2000122
1309.933915	880.0
1310.472862	877.7999878
1311.011753	878.0
1311.550588	873.4000244
1312.089367	871.5999756
1312.62809	873.0
1313.166758	873.0
1313.70537	879.4000244
1314.243925	877.2000122
1314.782425	870.0
1315.320869	875.5999756
1315.859257	874.4000244
1316.397589	874.4000244
1316.935866	877.2000122
1317.474086	870.2000122
1318.012251	879.2000122
1318.55036	874.0
1319.088413	880.2000122
1319.62641	876.0
1320.164351	872.5999756
1320.702236	872.5999756
1321.240066	882.0
1321.777839	880.7999878
1322.315557	882.5999756
1322.853219	881.0
1323.390826	864.2000122
1323.928376	877.5999756
1324.465871	870.7999878
1325.003309	878.5999756
1325.540692	870.7999878
1326.07802	877.0
1326.615291	877.5999756
1327.152506	880.4000244
1327.689666	880.4000244
1328.22677	883.7999878
1328.763818	868.5999756
1329.300811	872.2000122
1329.837747	875.4000244
1330.374628	881.0
1330.911453	876.5999756
1331.448222	869.5999756
1331.984936	871.7999878
1332.521594	875.2000122
1333.058196	866.2000122
1333.594742	876.0
1334.131232	870.0
1334.667667	877.2000122
1335.204046	874.4000244
1335.740369	885.0
1336.276637	872.0
1336.812848	875.5999756
1337.349004	878.2000122
1337.885105	874.7999878
1338.421149	877.5999756
1338.957138	874.4000244
1339.493071	873.0
1340.028949	875.0
1340.56477	871.4000244
1341.100536	877.2000122
1341.636246	881.0
1342.171901	874.2000122
1342.7075	884.5999756
1343.243043	870.4000244
1343.77853	874.2000122
1344.313962	883.7999878
1344.849338	876.7999878
1345.384659	866.7999878
1345.919923	871.7999878
1346.455133	875.2000122
1346.990286	874.2000122
1347.525384	875.4000244
1348.060426	880.2000122
1348.595412	879.4000244
1349.130343	876.7999878
1349.665218	873.0
1350.200037	873.7999878
1350.734801	877.7999878
1351.269509	880.0
1351.804162	879.5999756
1352.338758	873.0
1352.8733	879.7999878
1353.407785	878.2000122
1353.942215	880.5999756
1354.476589	873.5999756
1355.010908	879.7999878
1355.545171	877.2000122
1356.079379	870.7999878
1356.61353	873.4000244
1357.147627	881.2000122
1357.681667	877.2000122
1358.215652	874.5999756
1358.749582	875.5999756
1359.283456	883.2000122
1359.817274	874.7999878
1360.351037	871.5999756
1360.884744	875.4000244
1361.418395	881.4000244
1361.951991	878.2000122
1362.485531	876.7999878
1363.019016	883.7999878
1363.552445	879.5999756
1364.085819	880.4000244
1364.619137	875.7999878
1365.1524	879.4000244
1365.685607	878.7999878
1366.218758	884.5999756
1366.751854	880.0
1367.284894	882.2000122
1367.817879	882.4000244
1368.350808	884.5999756
1368.883682	883.4000244
1369.4165	883.2000122
1369.949263	879.4000244
1370.48197	889.4000244
1371.014622	889.2000122
1371.547218	883.7999878
1372.079758	882.0
1372.612244	883.2000122
1373.144673	882.7999878
1373.677047	882.2000122
1374.209366	884.0
1374.741629	881.5999756
1375.273836	878.5999756
1375.805989	881.7999878
1376.338085	883.2000122
1376.870126	873.7999878
1377.402112	871.5999756
1377.934042	880.0
1378.465917	878.0
1378.997736	880.4000244
1379.5295	880.4000244
1380.061208	877.2000122
1380.592861	875.4000244
1381.124459	883.0
1381.656	878.2000122
1382.187487	874.7999878
1382.718918	881.0
1383.250294	884.4000244
1383.781614	891.7999878
1384.312879	884.0
1384.844088	879.4000244
1385.375242	879.5999756
1385.90634	887.4000244
1386.437383	894.4000244
1386.968371	896.4000244
1387.499303	919.4000244
1388.03018	982.5999756
1388.561001	1307.0
1389.091767	1579.199951
1389.622478	1148.599976
1390.153133	944.5999756
1390.683733	898.7999878
1391.214277	896.4000244
1391.744766	885.5999756
1392.2752	887.4000244
1392.805578	886.7999878
1393.335901	881.2000122
1393.866168	888.0
1394.396381	879.0
1394.926537	879.4000244
1395.456639	885.7999878
1395.986685	875.5999756
1396.516675	882.5999756
1397.046611	884.4000244
1397.576491	879.5999756
1398.106315	876.2000122
1398.636084	881.5999756
1399.165798	889.5999756
1399.695457	883.2000122
1400.22506	880.0
1400.754608	873.5999756
1401.284101	890.5999756
1401.813538	873.7999878
1402.34292	880.0
1402.872247	874.2000122
1403.401518	887.2000122
1403.930734	883.7999878
1404.459895	871.7999878
1404.989	885.7999878
1405.51805	883.2000122
1406.047045	885.0
1406.575984	881.0
1407.104869	886.5999756
1407.633697	877.5999756
1408.162471	886.7999878
1408.691189	886.5999756
1409.219852	897.2000122
1409.74846	909.5999756
1410.277013	929.5999756
1410.80551	918.0
1411.333952	897.0
1411.862339	895.4000244
1412.39067	886.5999756
1412.918946	894.2000122
1413.447167	882.4000244
1413.975333	887.4000244
1414.503444	882.5999756
1415.031499	887.2000122
1415.559499	895.4000244
1416.087444	879.5999756
1416.615333	882.2000122
1417.143167	878.7999878
1417.670947	894.2000122
1418.19867	875.2000122
1418.726339	883.5999756
1419.253952	884.4000244
1419.781511	880.4000244
1420.309014	879.2000122
1420.836461	880.5999756
1421.363854	887.7999878
1421.891191	887.7999878
1422.418474	886.2000122
1422.945701	887.2000122
1423.472872	877.0
1423.999989	888.2000122
1424.52705	876.5999756
1425.054057	892.7999878
1425.581008	889.7999878
1426.107904	881.2000122
1426.634745	883.7999878
1427.16153	884.2000122
1427.688261	884.2000122
1428.214936	878.7999878
1428.741556	881.4000244
1429.268121	874.4000244
1429.794631	889.4000244
1430.321085	885.7999878
1430.847485	888.4000244
1431.373829	883.2000122
1431.900118	879.0
1432.426353	893.2000122
1432.952532	882.4000244
1433.478655	882.7999878
1434.004724	884.4000244
1434.530738	882.5999756
1435.056696	889.7999878
1435.5826	890.0
1436.108448	884.4000244
1436.634241	888.4000244
1437.159979	879.7999878
1437.685662	886.4000244
1438.21129	883.7999878
1438.736863	888.0
1439.262381	875.0
1439.787843	888.5999756
1440.313251	880.4000244
1440.838603	883.2000122
1441.3639	888.0
1441.889143	890.2000122
1442.41433	887.7999878
1442.939462	880.0
1443.464539	885.2000122
1443.989561	884.4000244
1444.514528	884.7999878
1445.03944	892.5999756
1445.564297	887.0
1446.089099	890.4000244
1446.613846	891.7999878
1447.138537	886.7999878
1447.663174	887.4000244
1448.187756	891.0
1448.712282	888.5999756
1449.236754	889.2000122
1449.761171	883.2000122
1450.285532	888.2000122
1450.809839	878.5999756
1451.33409	888.4000244
1451.858287	889.7999878
1452.382428	885.4000244
1452.906515	889.7999878
1453.430546	893.2000122
1453.954523	882.7999878
1454.478444	889.5999756
1455.002311	892.0
1455.526123	883.4000244
1456.049879	886.0
1456.573581	894.5999756
1457.097227	876.2000122
1457.620819	879.5999756
1458.144356	881.0
1458.667837	892.0
1459.191264	896.5999756
1459.714636	877.0
1460.237952	883.0
1460.761214	884.2000122
1461.284421	890.4000244
1461.807573	876.5999756
1462.33067	890.5999756
1462.853712	886.5999756
1463.376699	889.0
1463.899632	889.7999878
1464.422509	882.0
1464.945331	882.0
1465.468099	886.4000244
1465.990811	886.5999756
1466.513469	883.0
1467.036071	880.7999878
1467.558619	878.2000122
1468.081112	887.7999878
1468.60355	875.4000244
1469.125933	887.7999878
1469.648261	883.2000122
1470.170534	883.0
1470.692752	888.0
1471.214916	884.4000244
1471.737024	881.4000244
1472.259078	887.4000244
1472.781077	881.0
1473.303021	883.0
1473.82491	889.0
1474.346744	887.4000244
1474.868523	881.0
1475.390248	886.4000244
1475.911917	886.4000244
1476.433532	880.5999756
1476.955092	888.0
1477.476597	878.2000122
1477.998047	894.5999756
1478.519442	879.7999878
1479.040783	883.0
1479.562068	884.0
1480.083299	884.2000122
1480.604475	885.2000122
1481.125596	882.7999878
1481.646663	876.0
1482.167674	877.7999878
1482.688631	885.2000122
1483.209533	891.4000244
1483.73038	881.0
1484.251172	886.5999756
1484.771909	885.5999756
1485.292592	888.7999878
1485.81322	883.0
1486.333793	882.4000244
1486.854311	886.5999756
1487.374775	886.2000122
1487.895183	887.0
1488.415537	887.2000122
1488.935836	884.0
1489.456081	886.7999878
1489.97627	888.2000122
1490.496405	886.7999878
1491.016485	887.7999878
1491.536511	885.0
1492.056481	885.7999878
1492.576397	889.2000122
1493.096258	888.7999878
1493.616064	887.2000122
1494.135816	892.4000244
1494.655513	884.2000122
1495.175155	880.2000122
1495.694742	894.2000122
1496.214274	881.0
1496.733752	891.4000244
1497.253175	879.5999756
1497.772544	884.2000122
1498.291858	880.4000244
1498.811116	889.4000244
1499.330321	888.7999878
1499.84947	892.7999878
1500.368565	885.7999878
1500.887605	888.0
1501.406591	892.4000244
1501.925521	889.5999756
1502.444397	879.7999878
1502.963219	882.4000244
1503.481985	883.7999878
1504.000697	885.5999756
1504.519355	883.0
1505.037957	883.4000244
1505.556505	885.5999756
1506.074999	884.2000122
1506.593437	879.5999756
1507.111821	886.2000122
1507.63015	884.2000122
1508.148425	887.0
1508.666645	884.7999878
1509.18481	889.7999878
1509.702921	894.0
1510.220977	882.7999878
1510.738979	887.0
1511.256925	879.7999878
1511.774817	877.4000244
1512.292655	882.7999878
1512.810438	884.5999756
1513.328166	879.5999756
1513.84584	887.2000122
1514.363459	885.4000244
1514.881023	882.2000122
1515.398533	886.4000244
1515.915988	891.4000244
1516.433389	885.7999878
1516.950734	882.7999878
1517.468026	884.0
1517.985263	891.2000122
1518.502445	887.7999878
1519.019572	888.5999756
1519.536645	887.7999878
1520.053664	884.5999756
1520.570628	888.7999878
1521.087537	881.2000122
1521.604392	890.7999878
1522.121192	886.5999756
1522.637937	890.2000122
1523.154628	896.0
1523.671265	887.4000244
1524.187847	882.2000122
1524.704374	887.4000244
1525.220847	889.2000122
1525.737265	888.5999756
1526.253629	882.0
1526.769938	884.4000244
1527.286192	887.4000244
1527.802392	880.4000244
1528.318538	888.4000244
1528.834629	887.7999878
1529.350666	889.2000122
1529.866648	883.2000122
1530.382575	887.2000122
1530.898448	888.2000122
1531.414266	884.4000244
1531.93003	877.4000244
1532.44574	884.4000244
1532.961395	892.0
1533.476995	883.4000244
1533.992541	883.4000244
1534.508033	879.4000244
1535.02347	877.2000122
1535.538852	876.4000244
1536.05418	888.4000244
1536.569454	895.0
1537.084673	887.4000244
1537.599837	895.5999756
1538.114947	889.5999756
1538.630003	888.5999756
1539.145004	886.0
1539.659951	890.4000244
1540.174843	889.5999756
1540.689681	891.5999756
1541.204465	893.5999756
1541.719194	884.5999756
1542.233868	885.7999878
1542.748488	883.5999756
1543.263054	886.4000244
1543.777565	895.7999878
1544.292022	892.0
1544.806424	896.0
1545.320772	892.7999878
1545.835066	885.2000122
1546.349305	888.7999878
1546.863489	884.0
1547.37762	887.0
1547.891696	895.4000244
1548.405717	891.4000244
1548.919684	887.0
1549.433597	882.2000122
1549.947455	890.2000122
1550.461259	891.5999756
1550.975009	890.4000244
1551.488704	892.0
1552.002345	889.4000244
1552.515931	893.7999878
1553.029463	887.4000244
1553.542941	886.2000122
1554.056364	890.5999756
1554.569733	889.7999878
1555.083048	886.4000244
1555.596308	888.0
1556.109514	893.0
1556.622665	890.7999878
1557.135762	891.4000244
1557.648805	890.7999878
1558.161794	889.2000122
1558.674728	885.4000244
1559.187608	895.5999756
1559.700433	888.0
1560.213205	894.2000122
1560.725921	887.2000122
1561.238584	891.7999878
1561.751192	887.7999878
1562.263746	891.7999878
1562.776246	894.7999878
1563.288691	887.4000244
1563.801082	891.2000122
1564.313419	892.0
1564.825701	892.4000244
1565.337929	891.7999878
1565.850103	892.0
1566.362223	891.2000122
1566.874288	895.5999756
1567.386299	890.2000122
1567.898256	898.2000122
1568.410158	896.0
1568.922007	886.4000244
1569.4338	894.7999878
1569.94554	898.2000122
1570.457226	895.2000122
1570.968857	889.4000244
1571.480434	894.0
1571.991956	892.5999756
1572.503425	894.7999878
1573.014839	899.5999756
1573.526199	899.4000244
1574.037505	899.2000122
1574.548756	896.7999878
1575.059953	896.0
1575.571096	889.4000244
1576.082185	889.7999878
1576.59322	894.2000122
1577.1042	898.4000244
1577.615126	889.2000122
1578.125998	899.2000122
1578.636816	900.0
1579.14758	907.2000122
1579.658289	898.7999878
1580.168944	901.4000244
1580.679545	895.5999756
1581.190092	896.4000244
1581.700585	900.4000244
1582.211023	898.5999756
1582.721407	901.0
1583.231737	899.5999756
1583.742013	894.4000244
1584.252235	898.4000244
1584.762403	898.0
1585.272516	898.5999756
1585.782575	892.2000122
1586.292581	893.4000244
1586.802532	893.0
1587.312428	890.4000244
1587.822271	896.7999878
1588.33206	887.7999878
1588.841794	891.5999756
1589.351474	892.2000122
1589.8611	900.0
1590.370672	896.4000244
1590.88019	896.2000122
1591.389654	899.2000122
1591.899064	896.4000244
1592.408419	895.0
