 1.042452273E+03	 6.272600098E+03
 1.043018714E+03	 6.286399902E+03
 1.043585098E+03	 6.242200195E+03
 1.044151424E+03	 6.267399902E+03
 1.044717692E+03	 6.224399902E+03
 1.045283903E+03	 6.237399902E+03
 1.045850056E+03	 6.262600098E+03
 1.046416151E+03	 6.294200195E+03
 1.046982188E+03	 6.249000000E+03
 1.047548167E+03	 6.244200195E+03
 1.048114089E+03	 6.232799805E+03
 1.048679953E+03	 6.225600098E+03
 1.049245760E+03	 6.223799805E+03
 1.049811509E+03	 6.232000000E+03
 1.050377200E+03	 6.213200195E+03
 1.050942833E+03	 6.193799805E+03
 1.051508408E+03	 6.168799805E+03
 1.052073926E+03	 6.182000000E+03
 1.052639387E+03	 6.216399902E+03
 1.053204789E+03	 6.210399902E+03
 1.053770134E+03	 6.220000000E+03
 1.054335421E+03	 6.200799805E+03
 1.054900651E+03	 6.214200195E+03
 1.055465823E+03	 6.179200195E+03
 1.056030937E+03	 6.186600098E+03
 1.056595993E+03	 6.192600098E+03
 1.057160992E+03	 6.208200195E+03
 1.057725934E+03	 6.167399902E+03
 1.058290817E+03	 6.191200195E+03
 1.058855643E+03	 6.194200195E+03
 1.059420411E+03	 6.193799805E+03
 1.059985122E+03	 6.117600098E+03
 1.060549775E+03	 6.167600098E+03
 1.061114371E+03	 6.109600098E+03
 1.061678908E+03	 6.140600098E+03
 1.062243389E+03	 6.138200195E+03
 1.062807811E+03	 6.172799805E+03
 1.063372176E+03	 6.106600098E+03
 1.063936483E+03	 6.142000000E+03
 1.064500733E+03	 6.115799805E+03
 1.065064925E+03	 6.142000000E+03
 1.065629060E+03	 6.184600098E+03
 1.066193137E+03	 6.143600098E+03
 1.066757156E+03	 6.089600098E+03
 1.067321118E+03	 6.124799805E+03
 1.067885022E+03	 6.107600098E+03
 1.068448869E+03	 6.115399902E+03
 1.069012658E+03	 6.088200195E+03
 1.069576390E+03	 6.135200195E+03
 1.070140063E+03	 6.085000000E+03
 1.070703680E+03	 6.124000000E+03
 1.071267239E+03	 6.082000000E+03
 1.071830740E+03	 6.064799805E+03
 1.072394184E+03	 6.069799805E+03
 1.072957570E+03	 6.065399902E+03
 1.073520899E+03	 6.081399902E+03
 1.074084170E+03	 6.037799805E+03
 1.074647383E+03	 6.025399902E+03
 1.075210540E+03	 6.070399902E+03
 1.075773638E+03	 5.994799805E+03
 1.076336679E+03	 6.046600098E+03
 1.076899663E+03	 5.997399902E+03
 1.077462589E+03	 6.063200195E+03
 1.078025457E+03	 6.023200195E+03
 1.078588268E+03	 6.046000000E+03
 1.079151022E+03	 5.945000000E+03
 1.079713718E+03	 6.046000000E+03
 1.080276356E+03	 5.958799805E+03
 1.080838937E+03	 6.025200195E+03
 1.081401461E+03	 5.940600098E+03
 1.081963927E+03	 6.030200195E+03
 1.082526336E+03	 5.946600098E+03
 1.083088687E+03	 6.007799805E+03
 1.083650981E+03	 5.946200195E+03
 1.084213217E+03	 5.975000000E+03
 1.084775396E+03	 5.953799805E+03
 1.085337517E+03	 5.965399902E+03
 1.085899581E+03	 5.935399902E+03
 1.086461587E+03	 5.956600098E+03
 1.087023536E+03	 5.871200195E+03
 1.087585428E+03	 6.000799805E+03
 1.088147262E+03	 5.916200195E+03
 1.088709039E+03	 5.956200195E+03
 1.089270758E+03	 5.905200195E+03
 1.089832420E+03	 5.931200195E+03
 1.090394024E+03	 5.871600098E+03
 1.090955571E+03	 5.899799805E+03
 1.091517061E+03	 5.877399902E+03
 1.092078493E+03	 5.896000000E+03
 1.092639868E+03	 5.823200195E+03
 1.093201185E+03	 5.911799805E+03
 1.093762445E+03	 5.856600098E+03
 1.094323648E+03	 5.902799805E+03
 1.094884793E+03	 5.842200195E+03
 1.095445881E+03	 5.862000000E+03
 1.096006911E+03	 5.788200195E+03
 1.096567884E+03	 5.829799805E+03
 1.097128800E+03	 5.802799805E+03
 1.097689659E+03	 5.837200195E+03
 1.098250460E+03	 5.745799805E+03
 1.098811203E+03	 5.823600098E+03
 1.099371890E+03	 5.797600098E+03
 1.099932518E+03	 5.844399902E+03
 1.100493090E+03	 5.742200195E+03
 1.101053604E+03	 5.803600098E+03
 1.101614061E+03	 5.736200195E+03
 1.102174461E+03	 5.780600098E+03
 1.102734803E+03	 5.738000000E+03
 1.103295088E+03	 5.769000000E+03
 1.103855316E+03	 5.693200195E+03
 1.104415486E+03	 5.742399902E+03
 1.104975599E+03	 5.701600098E+03
 1.105535655E+03	 5.762200195E+03
 1.106095653E+03	 5.675000000E+03
 1.106655594E+03	 5.757000000E+03
 1.107215478E+03	 5.642600098E+03
 1.107775305E+03	 5.724000000E+03
 1.108335074E+03	 5.631200195E+03
 1.108894786E+03	 5.691200195E+03
 1.109454440E+03	 5.627000000E+03
 1.110014038E+03	 5.722399902E+03
 1.110573578E+03	 5.643200195E+03
 1.111133061E+03	 5.698600098E+03
 1.111692486E+03	 5.636399902E+03
 1.112251854E+03	 5.694600098E+03
 1.112811165E+03	 5.629799805E+03
 1.113370419E+03	 5.668399902E+03
 1.113929616E+03	 5.623399902E+03
 1.114488755E+03	 5.646799805E+03
 1.115047837E+03	 5.649000000E+03
 1.115606862E+03	 5.650000000E+03
 1.116165830E+03	 5.587799805E+03
 1.116724740E+03	 5.630399902E+03
 1.117283593E+03	 5.644000000E+03
 1.117842389E+03	 5.652000000E+03
 1.118401128E+03	 5.561399902E+03
 1.118959809E+03	 5.621200195E+03
 1.119518433E+03	 5.574200195E+03
 1.120077000E+03	 5.593799805E+03
 1.120635510E+03	 5.565000000E+03
 1.121193963E+03	 5.614399902E+03
 1.121752358E+03	 5.546000000E+03
 1.122310697E+03	 5.614200195E+03
 1.122868978E+03	 5.601000000E+03
 1.123427202E+03	 5.588200195E+03
 1.123985368E+03	 5.561200195E+03
 1.124543478E+03	 5.581399902E+03
 1.125101530E+03	 5.578399902E+03
 1.125659526E+03	 5.540799805E+03
 1.126217464E+03	 5.526399902E+03
 1.126775345E+03	 5.598600098E+03
 1.127333168E+03	 5.535799805E+03
 1.127890935E+03	 5.560399902E+03
 1.128448644E+03	 5.542200195E+03
 1.129006297E+03	 5.558799805E+03
 1.129563892E+03	 5.539799805E+03
 1.130121430E+03	 5.525799805E+03
 1.130678911E+03	 5.520600098E+03
 1.131236335E+03	 5.503399902E+03
 1.131793701E+03	 5.534200195E+03
 1.132351011E+03	 5.558000000E+03
 1.132908263E+03	 5.501600098E+03
 1.133465458E+03	 5.538000000E+03
 1.134022597E+03	 5.524399902E+03
 1.134579678E+03	 5.547200195E+03
 1.135136702E+03	 5.542399902E+03
 1.135693669E+03	 5.498000000E+03
 1.136250578E+03	 5.535799805E+03
 1.136807431E+03	 5.522000000E+03
 1.137364227E+03	 5.505799805E+03
 1.137920965E+03	 5.510200195E+03
 1.138477647E+03	 5.515399902E+03
 1.139034271E+03	 5.490799805E+03
 1.139590839E+03	 5.490000000E+03
 1.140147349E+03	 5.470399902E+03
 1.140703802E+03	 5.499600098E+03
 1.141260198E+03	 5.480200195E+03
 1.141816537E+03	 5.529200195E+03
 1.142372820E+03	 5.492200195E+03
 1.142929045E+03	 5.510000000E+03
 1.143485213E+03	 5.411200195E+03
 1.144041323E+03	 5.461000000E+03
 1.144597377E+03	 5.470600098E+03
 1.145153374E+03	 5.512200195E+03
 1.145709314E+03	 5.476000000E+03
 1.146265197E+03	 5.501000000E+03
 1.146821023E+03	 5.510200195E+03
 1.147376792E+03	 5.477200195E+03
 1.147932503E+03	 5.464600098E+03
 1.148488158E+03	 5.474600098E+03
 1.149043756E+03	 5.448399902E+03
 1.149599297E+03	 5.498600098E+03
 1.150154781E+03	 5.463799805E+03
 1.150710207E+03	 5.479799805E+03
 1.151265577E+03	 5.492799805E+03
 1.151820890E+03	 5.513000000E+03
 1.152376146E+03	 5.457799805E+03
 1.152931345E+03	 5.501799805E+03
 1.153486487E+03	 5.455600098E+03
 1.154041572E+03	 5.467000000E+03
 1.154596600E+03	 5.404399902E+03
 1.155151571E+03	 5.458600098E+03
 1.155706485E+03	 5.452000000E+03
 1.156261342E+03	 5.469799805E+03
 1.156816142E+03	 5.437600098E+03
 1.157370885E+03	 5.470200195E+03
 1.157925572E+03	 5.432200195E+03
 1.158480201E+03	 5.464200195E+03
 1.159034774E+03	 5.425000000E+03
 1.159589289E+03	 5.498799805E+03
 1.160143748E+03	 5.413200195E+03
 1.160698149E+03	 5.463200195E+03
 1.161252494E+03	 5.397000000E+03
 1.161806782E+03	 5.431000000E+03
 1.162361013E+03	 5.429399902E+03
 1.162915187E+03	 5.428000000E+03
 1.163469304E+03	 5.381000000E+03
 1.164023364E+03	 5.408000000E+03
 1.164577368E+03	 5.391200195E+03
 1.165131314E+03	 5.441799805E+03
 1.165685204E+03	 5.404799805E+03
 1.166239036E+03	 5.380600098E+03
 1.166792812E+03	 5.408399902E+03
 1.167346531E+03	 5.431000000E+03
 1.167900193E+03	 5.382799805E+03
 1.168453798E+03	 5.378600098E+03
 1.169007347E+03	 5.391600098E+03
 1.169560838E+03	 5.427399902E+03
 1.170114273E+03	 5.376799805E+03
 1.170667650E+03	 5.373399902E+03
 1.171220971E+03	 5.376600098E+03
 1.171774235E+03	 5.423600098E+03
 1.172327443E+03	 5.333600098E+03
 1.172880593E+03	 5.362799805E+03
 1.173433687E+03	 5.330000000E+03
 1.173986723E+03	 5.341399902E+03
 1.174539703E+03	 5.374600098E+03
 1.175092626E+03	 5.398799805E+03
 1.175645493E+03	 5.367200195E+03
 1.176198302E+03	 5.338799805E+03
 1.176751055E+03	 5.374600098E+03
 1.177303751E+03	 5.341799805E+03
 1.177856390E+03	 5.345600098E+03
 1.178408972E+03	 5.333000000E+03
 1.178961498E+03	 5.373200195E+03
 1.179513966E+03	 5.319399902E+03
 1.180066378E+03	 5.324399902E+03
 1.180618733E+03	 5.324799805E+03
 1.181171032E+03	 5.338399902E+03
 1.181723273E+03	 5.325600098E+03
 1.182275458E+03	 5.295799805E+03
 1.182827586E+03	 5.340399902E+03
 1.183379657E+03	 5.327600098E+03
 1.183931672E+03	 5.305000000E+03
 1.184483630E+03	 5.300200195E+03
 1.185035531E+03	 5.309200195E+03
 1.185587375E+03	 5.293399902E+03
 1.186139162E+03	 5.311399902E+03
 1.186690893E+03	 5.278200195E+03
 1.187242567E+03	 5.285799805E+03
 1.187794184E+03	 5.285399902E+03
 1.188345745E+03	 5.267200195E+03
 1.188897249E+03	 5.280399902E+03
 1.189448696E+03	 5.271600098E+03
 1.190000086E+03	 5.267600098E+03
 1.190551420E+03	 5.260000000E+03
 1.191102697E+03	 5.287000000E+03
 1.191653918E+03	 5.233799805E+03
 1.192205081E+03	 5.239799805E+03
 1.192756188E+03	 5.265600098E+03
 1.193307238E+03	 5.281399902E+03
 1.193858232E+03	 5.223000000E+03
 1.194409169E+03	 5.265000000E+03
 1.194960049E+03	 5.244799805E+03
 1.195510872E+03	 5.276799805E+03
 1.196061639E+03	 5.233600098E+03
 1.196612349E+03	 5.235799805E+03
 1.197163003E+03	 5.224600098E+03
 1.197713599E+03	 5.231799805E+03
 1.198264139E+03	 5.223799805E+03
 1.198814623E+03	 5.186399902E+03
 1.199365050E+03	 5.223399902E+03
 1.199915420E+03	 5.205600098E+03
 1.200465734E+03	 5.232399902E+03
 1.201015990E+03	 5.183600098E+03
 1.201566191E+03	 5.201799805E+03
 1.202116334E+03	 5.224000000E+03
 1.202666421E+03	 5.191799805E+03
 1.203216452E+03	 5.229799805E+03
 1.203766425E+03	 5.194600098E+03
 1.204316343E+03	 5.202000000E+03
 1.204866203E+03	 5.163399902E+03
 1.205416007E+03	 5.160200195E+03
 1.205965754E+03	 5.199399902E+03
 1.206515445E+03	 5.161000000E+03
 1.207065079E+03	 5.185399902E+03
 1.207614657E+03	 5.185600098E+03
 1.208164177E+03	 5.134200195E+03
 1.208713642E+03	 5.175600098E+03
 1.209263050E+03	 5.136000000E+03
 1.209812401E+03	 5.173600098E+03
 1.210361695E+03	 5.145600098E+03
 1.210910933E+03	 5.153799805E+03
 1.211460115E+03	 5.154000000E+03
 1.212009240E+03	 5.129399902E+03
 1.212558308E+03	 5.147399902E+03
 1.213107320E+03	 5.147799805E+03
 1.213656275E+03	 5.119799805E+03
 1.214205174E+03	 5.146200195E+03
 1.214754016E+03	 5.161600098E+03
 1.215302801E+03	 5.089799805E+03
 1.215851530E+03	 5.113399902E+03
 1.216400203E+03	 5.124600098E+03
 1.216948819E+03	 5.104000000E+03
 1.217497378E+03	 5.124600098E+03
 1.218045881E+03	 5.095600098E+03
 1.218594327E+03	 5.105600098E+03
 1.219142717E+03	 5.068200195E+03
 1.219691051E+03	 5.098399902E+03
 1.220239327E+03	 5.077200195E+03
 1.220787548E+03	 5.106799805E+03
 1.221335712E+03	 5.079399902E+03
 1.221883819E+03	 5.064799805E+03
 1.222431870E+03	 5.088399902E+03
 1.222979864E+03	 5.062000000E+03
 1.223527802E+03	 5.082200195E+03
 1.224075683E+03	 5.045000000E+03
 1.224623508E+03	 5.042600098E+03
 1.225171277E+03	 5.058000000E+03
 1.225718989E+03	 5.089200195E+03
 1.226266644E+03	 5.093000000E+03
 1.226814243E+03	 5.022600098E+03
 1.227361786E+03	 5.065399902E+03
 1.227909272E+03	 5.057000000E+03
 1.228456702E+03	 5.039200195E+03
 1.229004075E+03	 5.045399902E+03
 1.229551392E+03	 5.015600098E+03
 1.230098652E+03	 5.060399902E+03
 1.230645856E+03	 5.018399902E+03
 1.231193003E+03	 5.042200195E+03
 1.231740094E+03	 4.996000000E+03
 1.232287129E+03	 5.045600098E+03
 1.232834107E+03	 5.019200195E+03
 1.233381029E+03	 5.014399902E+03
 1.233927894E+03	 5.022399902E+03
 1.234474703E+03	 5.027200195E+03
 1.235021455E+03	 4.975000000E+03
 1.235568151E+03	 5.014799805E+03
 1.236114791E+03	 5.010000000E+03
 1.236661374E+03	 4.989000000E+03
 1.237207901E+03	 5.014399902E+03
 1.237754372E+03	 4.997200195E+03
 1.238300786E+03	 5.009200195E+03
 1.238847144E+03	 4.988200195E+03
 1.239393445E+03	 4.984200195E+03
 1.239939690E+03	 4.960799805E+03
 1.240485879E+03	 4.989600098E+03
 1.241032011E+03	 5.015200195E+03
 1.241578087E+03	 4.987200195E+03
 1.242124106E+03	 4.977000000E+03
 1.242670070E+03	 4.970200195E+03
 1.243215976E+03	 5.002600098E+03
 1.243761827E+03	 5.018799805E+03
 1.244307621E+03	 4.961000000E+03
 1.244853359E+03	 4.987799805E+03
 1.245399040E+03	 4.967000000E+03
 1.245944665E+03	 4.973600098E+03
 1.246490234E+03	 4.936600098E+03
 1.247035746E+03	 4.937399902E+03
 1.247581203E+03	 4.948799805E+03
 1.248126602E+03	 4.946200195E+03
 1.248671946E+03	 4.950799805E+03
 1.249217233E+03	 4.939600098E+03
 1.249762464E+03	 4.947600098E+03
 1.250307638E+03	 4.937000000E+03
 1.250852757E+03	 4.932200195E+03
 1.251397819E+03	 4.944399902E+03
 1.251942824E+03	 4.951200195E+03
 1.252487774E+03	 4.924799805E+03
 1.253032667E+03	 4.936000000E+03
 1.253577503E+03	 4.936000000E+03
 1.254122284E+03	 4.924200195E+03
 1.254667008E+03	 4.924399902E+03
 1.255211676E+03	 4.936799805E+03
 1.255756288E+03	 4.916399902E+03
 1.256300843E+03	 4.957399902E+03
 1.256845342E+03	 4.895799805E+03
 1.257389785E+03	 4.894600098E+03
 1.257934172E+03	 4.906399902E+03
 1.258478502E+03	 4.901000000E+03
 1.259022776E+03	 4.887000000E+03
 1.259566994E+03	 4.929200195E+03
 1.260111156E+03	 4.910600098E+03
 1.260655261E+03	 4.897799805E+03
 1.261199311E+03	 4.881799805E+03
 1.261743304E+03	 4.904200195E+03
 1.262287240E+03	 4.893600098E+03
 1.262831121E+03	 4.915000000E+03
 1.263374945E+03	 4.892399902E+03
 1.263918713E+03	 4.854600098E+03
 1.264462425E+03	 4.893399902E+03
 1.265006081E+03	 4.903799805E+03
 1.265549680E+03	 4.901799805E+03
 1.266093223E+03	 4.888399902E+03
 1.266636711E+03	 4.873200195E+03
 1.267180141E+03	 4.857799805E+03
 1.267723516E+03	 4.865399902E+03
 1.268266835E+03	 4.864399902E+03
 1.268810097E+03	 4.867799805E+03
 1.269353303E+03	 4.905000000E+03
 1.269896453E+03	 4.899399902E+03
 1.270439547E+03	 4.836600098E+03
 1.270982584E+03	 4.866000000E+03
 1.271525566E+03	 4.853399902E+03
 1.272068491E+03	 4.852600098E+03
 1.272611360E+03	 4.804600098E+03
 1.273154173E+03	 4.875799805E+03
 1.273696930E+03	 4.831399902E+03
 1.274239631E+03	 4.846799805E+03
 1.274782275E+03	 4.869600098E+03
 1.275324864E+03	 4.827000000E+03
 1.275867396E+03	 4.815600098E+03
 1.276409872E+03	 4.783000000E+03
 1.276952292E+03	 4.830200195E+03
 1.277494656E+03	 4.821799805E+03
 1.278036964E+03	 4.830000000E+03
 1.278579215E+03	 4.828799805E+03
 1.279121411E+03	 4.834600098E+03
 1.279663550E+03	 4.827399902E+03
 1.280205634E+03	 4.805200195E+03
 1.280747661E+03	 4.821000000E+03
 1.281289632E+03	 4.819000000E+03
 1.281831547E+03	 4.796799805E+03
 1.282373406E+03	 4.807399902E+03
 1.282915209E+03	 4.818399902E+03
 1.283456955E+03	 4.805799805E+03
 1.283998646E+03	 4.853600098E+03
 1.284540281E+03	 4.831000000E+03
 1.285081859E+03	 5.047399902E+03
 1.285623381E+03	 5.419600098E+03
 1.286164848E+03	 5.285200195E+03
 1.286706258E+03	 4.895399902E+03
 1.287247612E+03	 4.842799805E+03
 1.287788911E+03	 4.763600098E+03
 1.288330153E+03	 4.798600098E+03
 1.288871339E+03	 4.763600098E+03
 1.289412469E+03	 4.778000000E+03
 1.289953543E+03	 4.734000000E+03
 1.290494561E+03	 4.792799805E+03
 1.291035523E+03	 4.721000000E+03
 1.291576428E+03	 4.758200195E+03
 1.292117278E+03	 4.763000000E+03
 1.292658072E+03	 4.735200195E+03
 1.293198810E+03	 4.750000000E+03
 1.293739492E+03	 4.723799805E+03
 1.294280118E+03	 4.727000000E+03
 1.294820687E+03	 4.703399902E+03
 1.295361201E+03	 4.722399902E+03
 1.295901659E+03	 4.733600098E+03
 1.296442061E+03	 4.722600098E+03
 1.296982406E+03	 4.684399902E+03
 1.297522696E+03	 4.697799805E+03
 1.298062930E+03	 4.721200195E+03
 1.298603108E+03	 4.749200195E+03
 1.299143229E+03	 4.732399902E+03
 1.299683295E+03	 4.759200195E+03
 1.300223305E+03	 4.719000000E+03
 1.300763259E+03	 4.744000000E+03
 1.301303157E+03	 4.672200195E+03
 1.301842999E+03	 4.695000000E+03
 1.302382785E+03	 4.656200195E+03
 1.302922515E+03	 4.712799805E+03
 1.303462189E+03	 4.693600098E+03
 1.304001807E+03	 4.689799805E+03
 1.304541369E+03	 4.689399902E+03
 1.305080875E+03	 4.689799805E+03
 1.305620326E+03	 4.741000000E+03
 1.306159720E+03	 4.672799805E+03
 1.306699058E+03	 4.692600098E+03
 1.307238341E+03	 4.669000000E+03
 1.307777567E+03	 4.712399902E+03
 1.308316738E+03	 4.669799805E+03
 1.308855853E+03	 4.695200195E+03
 1.309394912E+03	 4.646600098E+03
 1.309933915E+03	 4.694399902E+03
 1.310472862E+03	 4.664399902E+03
 1.311011753E+03	 4.671799805E+03
 1.311550588E+03	 4.654200195E+03
 1.312089367E+03	 4.648600098E+03
 1.312628090E+03	 4.618799805E+03
 1.313166758E+03	 4.641399902E+03
 1.313705370E+03	 4.665200195E+03
 1.314243925E+03	 4.652799805E+03
 1.314782425E+03	 4.634799805E+03
 1.315320869E+03	 4.629600098E+03
 1.315859257E+03	 4.597000000E+03
 1.316397589E+03	 4.633799805E+03
 1.316935866E+03	 4.621399902E+03
 1.317474086E+03	 4.619000000E+03
 1.318012251E+03	 4.653600098E+03
 1.318550360E+03	 4.604399902E+03
 1.319088413E+03	 4.638399902E+03
 1.319626410E+03	 4.623799805E+03
 1.320164351E+03	 4.589799805E+03
 1.320702236E+03	 4.607799805E+03
 1.321240066E+03	 4.632399902E+03
 1.321777839E+03	 4.610200195E+03
 1.322315557E+03	 4.598799805E+03
 1.322853219E+03	 4.586399902E+03
 1.323390826E+03	 4.616399902E+03
 1.323928376E+03	 4.592000000E+03
 1.324465871E+03	 4.609600098E+03
 1.325003309E+03	 4.585200195E+03
 1.325540692E+03	 4.610399902E+03
 1.326078020E+03	 4.583799805E+03
 1.326615291E+03	 4.592399902E+03
 1.327152506E+03	 4.605600098E+03
 1.327689666E+03	 4.574200195E+03
 1.328226770E+03	 4.575600098E+03
 1.328763818E+03	 4.566000000E+03
 1.329300811E+03	 4.558000000E+03
 1.329837747E+03	 4.587000000E+03
 1.330374628E+03	 4.571600098E+03
 1.330911453E+03	 4.586200195E+03
 1.331448222E+03	 4.556200195E+03
 1.331984936E+03	 4.558200195E+03
 1.332521594E+03	 4.567799805E+03
 1.333058196E+03	 4.553600098E+03
 1.333594742E+03	 4.571799805E+03
 1.334131232E+03	 4.546399902E+03
 1.334667667E+03	 4.574399902E+03
 1.335204046E+03	 4.550200195E+03
 1.335740369E+03	 4.551200195E+03
 1.336276637E+03	 4.558399902E+03
 1.336812848E+03	 4.539600098E+03
 1.337349004E+03	 4.540399902E+03
 1.337885105E+03	 4.565399902E+03
 1.338421149E+03	 4.535000000E+03
 1.338957138E+03	 4.527000000E+03
 1.339493071E+03	 4.513600098E+03
 1.340028949E+03	 4.539000000E+03
 1.340564770E+03	 4.532799805E+03
 1.341100536E+03	 4.509799805E+03
 1.341636246E+03	 4.516600098E+03
 1.342171901E+03	 4.508399902E+03
 1.342707500E+03	 4.511399902E+03
 1.343243043E+03	 4.507000000E+03
 1.343778530E+03	 4.516600098E+03
 1.344313962E+03	 4.487600098E+03
 1.344849338E+03	 4.501600098E+03
 1.345384659E+03	 4.514799805E+03
 1.345919923E+03	 4.496799805E+03
 1.346455133E+03	 4.516799805E+03
 1.346990286E+03	 4.510000000E+03
 1.347525384E+03	 4.470200195E+03
 1.348060426E+03	 4.472799805E+03
 1.348595412E+03	 4.476200195E+03
 1.349130343E+03	 4.488799805E+03
 1.349665218E+03	 4.479399902E+03
 1.350200037E+03	 4.487000000E+03
 1.350734801E+03	 4.504000000E+03
 1.351269509E+03	 4.477399902E+03
 1.351804162E+03	 4.494600098E+03
 1.352338758E+03	 4.457000000E+03
 1.352873300E+03	 4.484200195E+03
 1.353407785E+03	 4.474799805E+03
 1.353942215E+03	 4.494000000E+03
 1.354476589E+03	 4.463600098E+03
 1.355010908E+03	 4.468200195E+03
 1.355545171E+03	 4.438000000E+03
 1.356079379E+03	 4.460600098E+03
 1.356613530E+03	 4.438600098E+03
 1.357147627E+03	 4.438200195E+03
 1.357681667E+03	 4.433200195E+03
 1.358215652E+03	 4.434200195E+03
 1.358749582E+03	 4.431000000E+03
 1.359283456E+03	 4.432399902E+03
 1.359817274E+03	 4.484000000E+03
 1.360351037E+03	 4.423799805E+03
 1.360884744E+03	 4.421399902E+03
 1.361418395E+03	 4.431200195E+03
 1.361951991E+03	 4.437000000E+03
 1.362485531E+03	 4.441200195E+03
 1.363019016E+03	 4.455200195E+03
 1.363552445E+03	 4.412399902E+03
 1.364085819E+03	 4.435000000E+03
 1.364619137E+03	 4.406600098E+03
 1.365152400E+03	 4.421200195E+03
 1.365685607E+03	 4.408799805E+03
 1.366218758E+03	 4.417000000E+03
 1.366751854E+03	 4.421399902E+03
 1.367284894E+03	 4.429200195E+03
 1.367817879E+03	 4.402600098E+03
 1.368350808E+03	 4.419399902E+03
 1.368883682E+03	 4.394000000E+03
 1.369416500E+03	 4.449600098E+03
 1.369949263E+03	 4.407200195E+03
 1.370481970E+03	 4.407200195E+03
 1.371014622E+03	 4.398000000E+03
 1.371547218E+03	 4.353200195E+03
 1.372079758E+03	 4.400200195E+03
 1.372612244E+03	 4.380600098E+03
 1.373144673E+03	 4.411200195E+03
 1.373677047E+03	 4.383799805E+03
 1.374209366E+03	 4.417799805E+03
 1.374741629E+03	 4.356600098E+03
 1.375273836E+03	 4.380399902E+03
 1.375805989E+03	 4.359399902E+03
 1.376338085E+03	 4.387000000E+03
 1.376870126E+03	 4.361600098E+03
 1.377402112E+03	 4.362200195E+03
 1.377934042E+03	 4.399000000E+03
 1.378465917E+03	 4.356799805E+03
 1.378997736E+03	 4.357399902E+03
 1.379529500E+03	 4.375799805E+03
 1.380061208E+03	 4.378399902E+03
 1.380592861E+03	 4.330200195E+03
 1.381124459E+03	 4.346600098E+03
 1.381656000E+03	 4.340000000E+03
 1.382187487E+03	 4.379600098E+03
 1.382718918E+03	 4.332200195E+03
 1.383250294E+03	 4.386399902E+03
 1.383781614E+03	 4.359399902E+03
 1.384312879E+03	 4.387399902E+03
 1.384844088E+03	 4.302600098E+03
 1.385375242E+03	 4.355200195E+03
 1.385906340E+03	 4.325600098E+03
 1.386437383E+03	 4.339000000E+03
 1.386968371E+03	 4.361399902E+03
 1.387499303E+03	 4.386000000E+03
 1.388030180E+03	 4.471200195E+03
 1.388561001E+03	 4.866399902E+03
 1.389091767E+03	 5.529399902E+03
 1.389622478E+03	 4.786799805E+03
 1.390153133E+03	 4.428600098E+03
 1.390683733E+03	 4.309000000E+03
 1.391214277E+03	 4.331200195E+03
 1.391744766E+03	 4.290200195E+03
 1.392275200E+03	 4.304600098E+03
 1.392805578E+03	 4.294600098E+03
 1.393335901E+03	 4.296600098E+03
 1.393866168E+03	 4.292200195E+03
 1.394396381E+03	 4.278799805E+03
 1.394926537E+03	 4.283799805E+03
 1.395456639E+03	 4.296600098E+03
 1.395986685E+03	 4.297399902E+03
 1.396516675E+03	 4.293799805E+03
 1.397046611E+03	 4.305600098E+03
 1.397576491E+03	 4.259399902E+03
 1.398106315E+03	 4.299399902E+03
 1.398636084E+03	 4.278000000E+03
 1.399165798E+03	 4.293600098E+03
 1.399695457E+03	 4.258200195E+03
 1.400225060E+03	 4.305799805E+03
 1.400754608E+03	 4.232399902E+03
 1.401284101E+03	 4.279799805E+03
 1.401813538E+03	 4.261600098E+03
 1.402342920E+03	 4.310600098E+03
 1.402872247E+03	 4.277600098E+03
 1.403401518E+03	 4.276000000E+03
 1.403930734E+03	 4.267600098E+03
 1.404459895E+03	 4.259600098E+03
 1.404989000E+03	 4.267200195E+03
 1.405518050E+03	 4.237799805E+03
 1.406047045E+03	 4.266000000E+03
 1.406575984E+03	 4.224399902E+03
 1.407104869E+03	 4.277799805E+03
 1.407633697E+03	 4.252600098E+03
 1.408162471E+03	 4.274799805E+03
 1.408691189E+03	 4.252000000E+03
 1.409219852E+03	 4.269399902E+03
 1.409748460E+03	 4.275399902E+03
 1.410277013E+03	 4.326399902E+03
 1.410805510E+03	 4.320799805E+03
 1.411333952E+03	 4.281799805E+03
 1.411862339E+03	 4.244000000E+03
 1.412390670E+03	 4.250600098E+03
 1.412918946E+03	 4.269399902E+03
 1.413447167E+03	 4.244799805E+03
 1.413975333E+03	 4.251799805E+03
 1.414503444E+03	 4.252799805E+03
 1.415031499E+03	 4.204000000E+03
 1.415559499E+03	 4.208799805E+03
 1.416087444E+03	 4.236799805E+03
 1.416615333E+03	 4.199600098E+03
 1.417143167E+03	 4.238000000E+03
 1.417670947E+03	 4.198200195E+03
 1.418198670E+03	 4.228200195E+03
 1.418726339E+03	 4.176799805E+03
 1.419253952E+03	 4.236000000E+03
 1.419781511E+03	 4.228399902E+03
 1.420309014E+03	 4.216200195E+03
 1.420836461E+03	 4.211399902E+03
 1.421363854E+03	 4.212799805E+03
 1.421891191E+03	 4.198600098E+03
 1.422418474E+03	 4.213600098E+03
 1.422945701E+03	 4.211799805E+03
 1.423472872E+03	 4.213600098E+03
 1.423999989E+03	 4.218399902E+03
 1.424527050E+03	 4.200200195E+03
 1.425054057E+03	 4.237200195E+03
 1.425581008E+03	 4.205799805E+03
 1.426107904E+03	 4.229799805E+03
 1.426634745E+03	 4.209399902E+03
 1.427161530E+03	 4.192200195E+03
 1.427688261E+03	 4.198799805E+03
 1.428214936E+03	 4.182799805E+03
 1.428741556E+03	 4.194600098E+03
 1.429268121E+03	 4.214600098E+03
 1.429794631E+03	 4.170200195E+03
 1.430321085E+03	 4.184399902E+03
 1.430847485E+03	 4.196000000E+03
 1.431373829E+03	 4.161399902E+03
 1.431900118E+03	 4.219799805E+03
 1.432426353E+03	 4.150799805E+03
 1.432952532E+03	 4.195000000E+03
 1.433478655E+03	 4.143200195E+03
 1.434004724E+03	 4.166000000E+03
 1.434530738E+03	 4.143799805E+03
 1.435056696E+03	 4.172200195E+03
 1.435582600E+03	 4.183600098E+03
 1.436108448E+03	 4.165000000E+03
 1.436634241E+03	 4.159200195E+03
 1.437159979E+03	 4.164000000E+03
 1.437685662E+03	 4.145600098E+03
 1.438211290E+03	 4.164000000E+03
 1.438736863E+03	 4.140000000E+03
 1.439262381E+03	 4.130399902E+03
 1.439787843E+03	 4.110600098E+03
 1.440313251E+03	 4.134600098E+03
 1.440838603E+03	 4.147200195E+03
 1.441363900E+03	 4.115200195E+03
 1.441889143E+03	 4.107799805E+03
 1.442414330E+03	 4.163000000E+03
 1.442939462E+03	 4.131000000E+03
 1.443464539E+03	 4.119799805E+03
 1.443989561E+03	 4.106399902E+03
 1.444514528E+03	 4.107799805E+03
 1.445039440E+03	 4.074000000E+03
 1.445564297E+03	 4.113200195E+03
 1.446089099E+03	 4.116200195E+03
 1.446613846E+03	 4.113000000E+03
 1.447138537E+03	 4.110200195E+03
 1.447663174E+03	 4.076199951E+03
 1.448187756E+03	 4.069800049E+03
 1.448712282E+03	 4.106200195E+03
 1.449236754E+03	 4.081800049E+03
 1.449761171E+03	 4.089800049E+03
 1.450285532E+03	 4.074399902E+03
 1.450809839E+03	 4.094399902E+03
 1.451334090E+03	 4.066000000E+03
 1.451858287E+03	 4.100000000E+03
 1.452382428E+03	 4.078600098E+03
 1.452906515E+03	 4.065199951E+03
 1.453430546E+03	 4.053199951E+03
 1.453954523E+03	 4.096000000E+03
 1.454478444E+03	 4.095399902E+03
 1.455002311E+03	 4.046600098E+03
 1.455526123E+03	 4.084600098E+03
 1.456049879E+03	 4.055800049E+03
 1.456573581E+03	 4.078600098E+03
 1.457097227E+03	 4.046199951E+03
 1.457620819E+03	 4.046399902E+03
 1.458144356E+03	 4.027800049E+03
 1.458667837E+03	 4.081000000E+03
 1.459191264E+03	 4.038000000E+03
 1.459714636E+03	 4.044399902E+03
 1.460237952E+03	 4.038399902E+03
 1.460761214E+03	 4.044600098E+03
 1.461284421E+03	 4.021000000E+03
 1.461807573E+03	 4.031000000E+03
 1.462330670E+03	 3.996199951E+03
 1.462853712E+03	 4.033600098E+03
 1.463376699E+03	 4.021199951E+03
 1.463899632E+03	 4.046199951E+03
 1.464422509E+03	 4.027199951E+03
 1.464945331E+03	 4.009800049E+03
 1.465468099E+03	 4.053199951E+03
 1.465990811E+03	 4.008199951E+03
 1.466513469E+03	 4.023399902E+03
 1.467036071E+03	 4.021399902E+03
 1.467558619E+03	 4.028199951E+03
 1.468081112E+03	 3.976199951E+03
 1.468603550E+03	 4.029000000E+03
 1.469125933E+03	 3.989199951E+03
 1.469648261E+03	 4.002399902E+03
 1.470170534E+03	 3.983600098E+03
 1.470692752E+03	 4.018800049E+03
 1.471214916E+03	 4.012199951E+03
 1.471737024E+03	 3.992000000E+03
 1.472259078E+03	 3.993000000E+03
 1.472781077E+03	 3.987199951E+03
 1.473303021E+03	 3.987600098E+03
 1.473824910E+03	 3.982800049E+03
 1.474346744E+03	 4.000199951E+03
 1.474868523E+03	 3.995399902E+03
 1.475390248E+03	 4.013800049E+03
 1.475911917E+03	 3.966000000E+03
 1.476433532E+03	 3.966800049E+03
 1.476955092E+03	 3.969199951E+03
 1.477476597E+03	 3.939000000E+03
 1.477998047E+03	 3.982800049E+03
 1.478519442E+03	 3.946399902E+03
 1.479040783E+03	 3.956800049E+03
 1.479562068E+03	 3.957600098E+03
 1.480083299E+03	 3.962199951E+03
 1.480604475E+03	 3.954399902E+03
 1.481125596E+03	 3.942199951E+03
 1.481646663E+03	 3.884600098E+03
 1.482167674E+03	 3.945199951E+03
 1.482688631E+03	 3.915600098E+03
 1.483209533E+03	 3.934399902E+03
 1.483730380E+03	 3.918000000E+03
 1.484251172E+03	 3.949399902E+03
 1.484771909E+03	 3.939600098E+03
 1.485292592E+03	 3.918800049E+03
 1.485813220E+03	 3.933399902E+03
 1.486333793E+03	 3.893600098E+03
 1.486854311E+03	 3.933399902E+03
 1.487374775E+03	 3.905800049E+03
 1.487895183E+03	 3.952600098E+03
 1.488415537E+03	 3.890000000E+03
 1.488935836E+03	 3.912600098E+03
 1.489456081E+03	 3.900199951E+03
 1.489976270E+03	 3.888800049E+03
 1.490496405E+03	 3.916800049E+03
 1.491016485E+03	 3.877199951E+03
 1.491536511E+03	 3.909399902E+03
 1.492056481E+03	 3.889800049E+03
 1.492576397E+03	 3.919600098E+03
 1.493096258E+03	 3.893800049E+03
 1.493616064E+03	 3.893199951E+03
 1.494135816E+03	 3.881800049E+03
 1.494655513E+03	 3.912399902E+03
 1.495175155E+03	 3.899000000E+03
 1.495694742E+03	 3.865800049E+03
 1.496214274E+03	 3.869600098E+03
 1.496733752E+03	 3.857000000E+03
 1.497253175E+03	 3.904600098E+03
 1.497772544E+03	 3.922000000E+03
 1.498291858E+03	 3.890399902E+03
 1.498811116E+03	 3.864800049E+03
 1.499330321E+03	 3.881000000E+03
 1.499849470E+03	 3.898199951E+03
 1.500368565E+03	 3.864600098E+03
 1.500887605E+03	 3.876199951E+03
 1.501406591E+03	 3.877600098E+03
 1.501925521E+03	 3.858800049E+03
 1.502444397E+03	 3.865800049E+03
 1.502963219E+03	 3.845399902E+03
 1.503481985E+03	 3.881399902E+03
 1.504000697E+03	 3.848600098E+03
 1.504519355E+03	 3.882600098E+03
 1.505037957E+03	 3.858800049E+03
 1.505556505E+03	 3.869399902E+03
 1.506074999E+03	 3.887199951E+03
 1.506593437E+03	 3.824199951E+03
 1.507111821E+03	 3.845600098E+03
 1.507630150E+03	 3.846800049E+03
 1.508148425E+03	 3.823800049E+03
 1.508666645E+03	 3.849000000E+03
 1.509184810E+03	 3.829000000E+03
 1.509702921E+03	 3.845800049E+03
 1.510220977E+03	 3.830600098E+03
 1.510738979E+03	 3.849399902E+03
 1.511256925E+03	 3.831800049E+03
 1.511774817E+03	 3.814800049E+03
 1.512292655E+03	 3.852000000E+03
 1.512810438E+03	 3.822600098E+03
 1.513328166E+03	 3.806399902E+03
 1.513845840E+03	 3.812199951E+03
 1.514363459E+03	 3.833000000E+03
 1.514881023E+03	 3.842399902E+03
 1.515398533E+03	 3.813399902E+03
 1.515915988E+03	 3.824199951E+03
 1.516433389E+03	 3.808399902E+03
 1.516950734E+03	 3.813000000E+03
 1.517468026E+03	 3.803600098E+03
 1.517985263E+03	 3.822199951E+03
 1.518502445E+03	 3.807199951E+03
 1.519019572E+03	 3.840800049E+03
 1.519536645E+03	 3.798000000E+03
 1.520053664E+03	 3.791000000E+03
 1.520570628E+03	 3.808399902E+03
 1.521087537E+03	 3.800000000E+03
 1.521604392E+03	 3.816399902E+03
 1.522121192E+03	 3.826199951E+03
 1.522637937E+03	 3.795399902E+03
 1.523154628E+03	 3.796800049E+03
 1.523671265E+03	 3.797600098E+03
 1.524187847E+03	 3.802199951E+03
 1.524704374E+03	 3.815000000E+03
 1.525220847E+03	 3.793800049E+03
 1.525737265E+03	 3.806000000E+03
 1.526253629E+03	 3.759800049E+03
 1.526769938E+03	 3.780399902E+03
 1.527286192E+03	 3.792399902E+03
 1.527802392E+03	 3.776800049E+03
 1.528318538E+03	 3.768000000E+03
 1.528834629E+03	 3.781600098E+03
 1.529350666E+03	 3.801800049E+03
 1.529866648E+03	 3.754800049E+03
 1.530382575E+03	 3.790000000E+03
 1.530898448E+03	 3.771199951E+03
 1.531414266E+03	 3.777199951E+03
 1.531930030E+03	 3.748000000E+03
 1.532445740E+03	 3.786199951E+03
 1.532961395E+03	 3.766800049E+03
 1.533476995E+03	 3.757600098E+03
 1.533992541E+03	 3.813199951E+03
 1.534508033E+03	 3.746600098E+03
 1.535023470E+03	 3.759199951E+03
 1.535538852E+03	 3.750199951E+03
 1.536054180E+03	 3.774000000E+03
 1.536569454E+03	 3.771600098E+03
 1.537084673E+03	 3.730600098E+03
 1.537599837E+03	 3.749600098E+03
 1.538114947E+03	 3.759399902E+03
 1.538630003E+03	 3.740000000E+03
 1.539145004E+03	 3.786000000E+03
 1.539659951E+03	 3.777600098E+03
 1.540174843E+03	 3.789199951E+03
 1.540689681E+03	 3.743800049E+03
 1.541204465E+03	 3.766800049E+03
 1.541719194E+03	 3.777800049E+03
 1.542233868E+03	 3.748600098E+03
 1.542748488E+03	 3.762600098E+03
 1.543263054E+03	 3.709399902E+03
 1.543777565E+03	 3.768199951E+03
 1.544292022E+03	 3.761600098E+03
 1.544806424E+03	 3.740199951E+03
 1.545320772E+03	 3.749199951E+03
 1.545835066E+03	 3.758399902E+03
 1.546349305E+03	 3.762800049E+03
 1.546863489E+03	 3.741399902E+03
 1.547377620E+03	 3.765600098E+03
 1.547891696E+03	 3.739399902E+03
 1.548405717E+03	 3.758000000E+03
 1.548919684E+03	 3.741600098E+03
 1.549433597E+03	 3.751000000E+03
 1.549947455E+03	 3.738600098E+03
 1.550461259E+03	 3.731600098E+03
 1.550975009E+03	 3.714399902E+03
 1.551488704E+03	 3.739600098E+03
 1.552002345E+03	 3.756600098E+03
 1.552515931E+03	 3.721000000E+03
 1.553029463E+03	 3.733800049E+03
 1.553542941E+03	 3.703199951E+03
 1.554056364E+03	 3.719600098E+03
 1.554569733E+03	 3.719800049E+03
 1.555083048E+03	 3.735399902E+03
 1.555596308E+03	 3.693600098E+03
 1.556109514E+03	 3.707199951E+03
 1.556622665E+03	 3.748399902E+03
 1.557135762E+03	 3.720199951E+03
 1.557648805E+03	 3.728800049E+03
 1.558161794E+03	 3.708800049E+03
 1.558674728E+03	 3.725000000E+03
 1.559187608E+03	 3.731199951E+03
 1.559700433E+03	 3.739000000E+03
 1.560213205E+03	 3.697000000E+03
 1.560725921E+03	 3.709800049E+03
 1.561238584E+03	 3.698399902E+03
 1.561751192E+03	 3.696399902E+03
 1.562263746E+03	 3.738600098E+03
 1.562776246E+03	 3.700800049E+03
 1.563288691E+03	 3.723600098E+03
 1.563801082E+03	 3.696199951E+03
 1.564313419E+03	 3.693199951E+03
 1.564825701E+03	 3.719399902E+03
 1.565337929E+03	 3.707399902E+03
 1.565850103E+03	 3.700600098E+03
 1.566362223E+03	 3.717399902E+03
 1.566874288E+03	 3.691399902E+03
 1.567386299E+03	 3.696000000E+03
 1.567898256E+03	 3.698800049E+03
 1.568410158E+03	 3.665000000E+03
 1.568922007E+03	 3.731600098E+03
 1.569433800E+03	 3.664600098E+03
 1.569945540E+03	 3.679600098E+03
 1.570457226E+03	 3.692600098E+03
 1.570968857E+03	 3.713800049E+03
 1.571480434E+03	 3.719000000E+03
 1.571991956E+03	 3.678600098E+03
 1.572503425E+03	 3.664199951E+03
 1.573014839E+03	 3.705199951E+03
 1.573526199E+03	 3.704199951E+03
 1.574037505E+03	 3.674399902E+03
 1.574548756E+03	 3.676000000E+03
 1.575059953E+03	 3.667000000E+03
 1.575571096E+03	 3.681399902E+03
 1.576082185E+03	 3.684000000E+03
 1.576593220E+03	 3.698399902E+03
 1.577104200E+03	 3.687800049E+03
 1.577615126E+03	 3.675399902E+03
 1.578125998E+03	 3.665800049E+03
 1.578636816E+03	 3.667399902E+03
 1.579147580E+03	 3.675600098E+03
 1.579658289E+03	 3.653199951E+03
 1.580168944E+03	 3.667600098E+03
 1.580679545E+03	 3.660800049E+03
 1.581190092E+03	 3.658199951E+03
 1.581700585E+03	 3.681199951E+03
 1.582211023E+03	 3.692399902E+03
 1.582721407E+03	 3.652000000E+03
 1.583231737E+03	 3.663600098E+03
 1.583742013E+03	 3.637199951E+03
 1.584252235E+03	 3.665800049E+03
 1.584762403E+03	 3.674199951E+03
 1.585272516E+03	 3.643800049E+03
 1.585782575E+03	 3.648800049E+03
 1.586292581E+03	 3.651399902E+03
 1.586802532E+03	 3.653199951E+03
 1.587312428E+03	 3.669000000E+03
 1.587822271E+03	 3.632600098E+03
 1.588332060E+03	 3.664800049E+03
 1.588841794E+03	 3.650399902E+03
 1.589351474E+03	 3.640399902E+03
 1.589861100E+03	 3.629000000E+03
 1.590370672E+03	 3.673600098E+03
 1.590880190E+03	 3.629600098E+03
 1.591389654E+03	 3.668000000E+03
 1.591899064E+03	 3.674399902E+03
 1.592408419E+03	 3.674399902E+03
