1042.452273	1825.800049
1043.018714	1835.599976
1043.585098	1843.400024
1044.151424	1831.599976
1044.717692	1847.400024
1045.283903	1834.199951
1045.850056	1839.199951
1046.416151	1814.599976
1046.982188	1838.800049
1047.548167	1828.599976
1048.114089	1832.800049
1048.679953	1832.400024
1049.24576	1826.400024
1049.811509	1833.400024
1050.3772	1801.800049
1050.942833	1812.800049
1051.508408	1819.400024
1052.073926	1810.199951
1052.639387	1826.199951
1053.204789	1800.599976
1053.770134	1812.0
1054.335421	1810.599976
1054.900651	1805.199951
1055.465823	1810.0
1056.030937	1832.599976
1056.595993	1822.0
1057.160992	1820.400024
1057.725934	1823.599976
1058.290817	1809.199951
1058.855643	1802.0
1059.420411	1795.199951
1059.985122	1796.599976
1060.549775	1807.800049
1061.114371	1806.800049
1061.678908	1814.400024
1062.243389	1806.800049
1062.807811	1811.400024
1063.372176	1803.599976
1063.936483	1786.400024
1064.500733	1777.599976
1065.064925	1793.800049
1065.62906	1798.199951
1066.193137	1799.199951
1066.757156	1798.800049
1067.321118	1808.599976
1067.885022	1786.599976
1068.448869	1794.800049
1069.012658	1793.599976
1069.57639	1805.400024
1070.140063	1788.800049
1070.70368	1788.400024
1071.267239	1790.199951
1071.83074	1815.599976
1072.394184	1754.599976
1072.95757	1784.400024
1073.520899	1764.400024
1074.08417	1795.199951
1074.647383	1786.800049
1075.21054	1768.800049
1075.773638	1760.599976
1076.336679	1779.0
1076.899663	1766.0
1077.462589	1767.0
1078.025457	1775.199951
1078.588268	1793.199951
1079.151022	1764.800049
1079.713718	1779.0
1080.276356	1773.599976
1080.838937	1783.599976
1081.401461	1751.0
1081.963927	1771.0
1082.526336	1744.400024
1083.088687	1773.0
1083.650981	1766.199951
1084.213217	1765.800049
1084.775396	1733.199951
1085.337517	1757.599976
1085.899581	1747.199951
1086.461587	1773.599976
1087.023536	1748.800049
1087.585428	1778.800049
1088.147262	1737.400024
1088.709039	1753.0
1089.270758	1758.400024
1089.83242	1744.599976
1090.394024	1738.599976
1090.955571	1748.199951
1091.517061	1728.400024
1092.078493	1750.199951
1092.639868	1719.400024
1093.201185	1745.199951
1093.762445	1725.0
1094.323648	1748.800049
1094.884793	1735.199951
1095.445881	1731.199951
1096.006911	1742.800049
1096.567884	1732.0
1097.1288	1725.599976
1097.689659	1735.800049
1098.25046	1724.199951
1098.811203	1743.400024
1099.37189	1722.199951
1099.932518	1730.800049
1100.49309	1719.599976
1101.053604	1739.199951
1101.614061	1716.400024
1102.174461	1717.800049
1102.734803	1718.800049
1103.295088	1725.599976
1103.855316	1700.199951
1104.415486	1723.800049
1104.975599	1696.199951
1105.535655	1720.599976
1106.095653	1697.199951
1106.655594	1726.800049
1107.215478	1720.800049
1107.775305	1700.800049
1108.335074	1709.800049
1108.894786	1708.199951
1109.45444	1687.0
1110.014038	1694.0
1110.573578	1692.199951
1111.133061	1695.800049
1111.692486	1694.599976
1112.251854	1711.400024
1112.811165	1687.0
1113.370419	1705.800049
1113.929616	1701.199951
1114.488755	1698.800049
1115.047837	1697.199951
1115.606862	1706.800049
1116.16583	1710.800049
1116.72474	1711.400024
1117.283593	1688.599976
1117.842389	1707.0
1118.401128	1669.400024
1118.959809	1675.0
1119.518433	1676.599976
1120.077	1697.0
1120.63551	1694.400024
1121.193963	1696.800049
1121.752358	1689.800049
1122.310697	1685.599976
1122.868978	1683.400024
1123.427202	1687.400024
1123.985368	1664.800049
1124.543478	1687.199951
1125.10153	1668.199951
1125.659526	1677.199951
1126.217464	1671.400024
1126.775345	1680.400024
1127.333168	1663.800049
1127.890935	1687.199951
1128.448644	1687.800049
1129.006297	1676.400024
1129.563892	1699.0
1130.12143	1674.599976
1130.678911	1659.800049
1131.236335	1679.400024
1131.793701	1682.599976
1132.351011	1684.0
1132.908263	1672.199951
1133.465458	1669.400024
1134.022597	1676.599976
1134.579678	1678.800049
1135.136702	1669.400024
1135.693669	1661.400024
1136.250578	1667.0
1136.807431	1655.599976
1137.364227	1683.599976
1137.920965	1674.800049
1138.477647	1670.400024
1139.034271	1660.0
1139.590839	1668.800049
1140.147349	1661.599976
1140.703802	1674.400024
1141.260198	1644.599976
1141.816537	1675.599976
1142.37282	1656.199951
1142.929045	1663.199951
1143.485213	1665.599976
1144.041323	1673.0
1144.597377	1669.0
1145.153374	1660.400024
1145.709314	1664.199951
1146.265197	1665.0
1146.821023	1663.400024
1147.376792	1667.800049
1147.932503	1668.400024
1148.488158	1655.0
1149.043756	1653.0
1149.599297	1672.0
1150.154781	1664.400024
1150.710207	1699.800049
1151.265577	1670.400024
1151.82089	1672.400024
1152.376146	1642.199951
1152.931345	1653.0
1153.486487	1663.800049
1154.041572	1678.400024
1154.5966	1664.400024
1155.151571	1655.0
1155.706485	1661.800049
1156.261342	1653.199951
1156.816142	1661.400024
1157.370885	1668.199951
1157.925572	1659.0
1158.480201	1657.0
1159.034774	1657.599976
1159.589289	1648.199951
1160.143748	1664.800049
1160.698149	1647.800049
1161.252494	1641.199951
1161.806782	1662.400024
1162.361013	1646.199951
1162.915187	1657.599976
1163.469304	1648.599976
1164.023364	1658.0
1164.577368	1649.800049
1165.131314	1652.400024
1165.685204	1657.199951
1166.239036	1653.400024
1166.792812	1661.400024
1167.346531	1646.800049
1167.900193	1639.800049
1168.453798	1650.400024
1169.007347	1647.0
1169.560838	1634.599976
1170.114273	1654.199951
1170.66765	1626.0
1171.220971	1634.0
1171.774235	1637.800049
1172.327443	1622.0
1172.880593	1638.800049
1173.433687	1641.800049
1173.986723	1652.199951
1174.539703	1655.400024
1175.092626	1640.400024
1175.645493	1630.599976
1176.198302	1634.400024
1176.751055	1643.599976
1177.303751	1640.599976
1177.85639	1648.599976
1178.408972	1626.599976
1178.961498	1646.599976
1179.513966	1621.599976
1180.066378	1624.0
1180.618733	1649.199951
1181.171032	1626.800049
1181.723273	1627.400024
1182.275458	1632.800049
1182.827586	1639.199951
1183.379657	1632.800049
1183.931672	1621.199951
1184.48363	1643.599976
1185.035531	1633.800049
1185.587375	1623.0
1186.139162	1622.400024
1186.690893	1616.400024
1187.242567	1621.0
1187.794184	1620.199951
1188.345745	1621.400024
1188.897249	1626.0
1189.448696	1628.599976
1190.000086	1616.199951
1190.55142	1606.599976
1191.102697	1621.800049
1191.653918	1634.599976
1192.205081	1620.400024
1192.756188	1622.599976
1193.307238	1623.800049
1193.858232	1614.199951
1194.409169	1621.199951
1194.960049	1616.0
1195.510872	1616.599976
1196.061639	1609.199951
1196.612349	1614.800049
1197.163003	1599.400024
1197.713599	1609.800049
1198.264139	1608.800049
1198.814623	1605.0
1199.36505	1608.199951
1199.91542	1615.599976
1200.465734	1615.599976
1201.01599	1605.400024
1201.566191	1607.199951
1202.116334	1607.0
1202.666421	1604.400024
1203.216452	1581.800049
1203.766425	1602.199951
1204.316343	1595.599976
1204.866203	1595.0
1205.416007	1593.400024
1205.965754	1610.199951
1206.515445	1588.0
1207.065079	1593.800049
1207.614657	1577.199951
1208.164177	1596.0
1208.713642	1602.599976
1209.26305	1603.800049
1209.812401	1589.0
1210.361695	1590.0
1210.910933	1585.0
1211.460115	1599.599976
1212.00924	1573.400024
1212.558308	1609.0
1213.10732	1591.599976
1213.656275	1582.599976
1214.205174	1604.199951
1214.754016	1589.800049
1215.302801	1604.599976
1215.85153	1594.199951
1216.400203	1581.400024
1216.948819	1573.800049
1217.497378	1590.800049
1218.045881	1596.599976
1218.594327	1584.400024
1219.142717	1589.800049
1219.691051	1576.800049
1220.239327	1581.400024
1220.787548	1568.199951
1221.335712	1560.599976
1221.883819	1579.599976
1222.43187	1595.400024
1222.979864	1598.800049
1223.527802	1565.0
1224.075683	1578.199951
1224.623508	1590.0
1225.171277	1575.400024
1225.718989	1590.400024
1226.266644	1570.0
1226.814243	1563.400024
1227.361786	1582.199951
1227.909272	1586.800049
1228.456702	1558.800049
1229.004075	1578.0
1229.551392	1559.199951
1230.098652	1567.800049
1230.645856	1575.400024
1231.193003	1561.400024
1231.740094	1559.599976
1232.287129	1577.599976
1232.834107	1559.199951
1233.381029	1562.800049
1233.927894	1577.800049
1234.474703	1563.400024
1235.021455	1556.599976
1235.568151	1564.599976
1236.114791	1565.199951
1236.661374	1565.0
1237.207901	1558.800049
1237.754372	1553.400024
1238.300786	1573.800049
1238.847144	1558.199951
1239.393445	1554.599976
1239.93969	1540.0
1240.485879	1553.599976
1241.032011	1542.400024
1241.578087	1557.0
1242.124106	1543.0
1242.67007	1562.0
1243.215976	1549.199951
1243.761827	1552.199951
1244.307621	1558.199951
1244.853359	1568.400024
1245.39904	1565.400024
1245.944665	1563.199951
1246.490234	1559.199951
1247.035746	1544.400024
1247.581203	1558.599976
1248.126602	1550.199951
1248.671946	1556.599976
1249.217233	1543.0
1249.762464	1555.0
1250.307638	1551.800049
1250.852757	1557.199951
1251.397819	1564.400024
1251.942824	1551.400024
1252.487774	1561.199951
1253.032667	1541.400024
1253.577503	1549.199951
1254.122284	1526.0
1254.667008	1540.800049
1255.211676	1550.800049
1255.756288	1536.800049
1256.300843	1550.0
1256.845342	1551.800049
1257.389785	1532.599976
1257.934172	1543.0
1258.478502	1541.0
1259.022776	1550.400024
1259.566994	1551.0
1260.111156	1547.199951
1260.655261	1544.400024
1261.199311	1539.199951
1261.743304	1531.400024
1262.28724	1547.400024
1262.831121	1552.800049
1263.374945	1544.599976
1263.918713	1557.599976
1264.462425	1577.400024
1265.006081	1590.800049
1265.54968	1596.800049
1266.093223	1567.800049
1266.636711	1540.0
1267.180141	1532.0
1267.723516	1532.800049
1268.266835	1537.599976
1268.810097	1533.199951
1269.353303	1557.199951
1269.896453	1515.599976
1270.439547	1518.0
1270.982584	1537.800049
1271.525566	1528.400024
1272.068491	1525.400024
1272.61136	1533.0
1273.154173	1516.400024
1273.69693	1530.800049
1274.239631	1531.0
1274.782275	1530.0
1275.324864	1530.199951
1275.867396	1531.0
1276.409872	1530.400024
1276.952292	1522.199951
1277.494656	1518.599976
1278.036964	1528.199951
1278.579215	1505.599976
1279.121411	1530.0
1279.66355	1511.0
1280.205634	1516.199951
1280.747661	1536.0
1281.289632	1526.800049
1281.831547	1521.0
1282.373406	1537.800049
1282.915209	1536.0
1283.456955	1555.800049
1283.998646	1589.800049
1284.540281	1728.400024
1285.081859	2127.600098
1285.623381	2559.0
1286.164848	2068.399902
1286.706258	1666.0
1287.247612	1571.199951
1287.788911	1541.400024
1288.330153	1518.400024
1288.871339	1524.599976
1289.412469	1518.0
1289.953543	1514.599976
1290.494561	1526.800049
1291.035523	1531.800049
1291.576428	1520.800049
1292.117278	1512.400024
1292.658072	1497.199951
1293.19881	1498.199951
1293.739492	1509.800049
1294.280118	1516.199951
1294.820687	1519.199951
1295.361201	1502.800049
1295.901659	1511.199951
1296.442061	1504.400024
1296.982406	1501.400024
1297.522696	1503.0
1298.06293	1501.0
1298.603108	1490.800049
1299.143229	1500.400024
1299.683295	1504.599976
1300.223305	1483.199951
1300.763259	1502.199951
1301.303157	1495.199951
1301.842999	1490.400024
1302.382785	1482.199951
1302.922515	1491.599976
1303.462189	1497.0
1304.001807	1478.400024
1304.541369	1500.0
1305.080875	1501.400024
1305.620326	1488.400024
1306.15972	1484.599976
1306.699058	1498.800049
1307.238341	1500.800049
1307.777567	1485.400024
1308.316738	1481.800049
1308.855853	1484.400024
1309.394912	1505.800049
1310.472862	1495.599976
1311.011753	1495.599976
1311.550588	1471.599976
1312.089367	1489.400024
1312.62809	1470.599976
1313.166758	1495.599976
1313.70537	1493.800049
1314.243925	1474.800049
1314.782425	1470.199951
1315.320869	1482.800049
1315.859257	1474.800049
1316.397589	1468.599976
1316.935866	1484.400024
1317.474086	1473.0
1318.012251	1460.800049
1318.55036	1473.199951
1319.088413	1469.400024
1319.62641	1469.0
1320.164351	1483.400024
1320.702236	1466.400024
1321.240066	1479.0
1321.777839	1486.0
1322.315557	1470.0
1322.853219	1471.800049
1323.390826	1485.599976
1323.928376	1481.599976
1324.465871	1463.199951
1325.003309	1453.400024
1325.540692	1465.0
1326.07802	1462.400024
1326.615291	1467.800049
1327.152506	1462.0
1327.689666	1473.599976
1328.22677	1457.400024
1328.763818	1463.599976
1329.300811	1467.0
1329.837747	1451.0
1330.374628	1456.0
1330.911453	1464.199951
1331.448222	1457.400024
1331.984936	1447.599976
1332.521594	1471.599976
1333.058196	1451.400024
1333.594742	1455.599976
1334.131232	1449.199951
1334.667667	1460.599976
1335.204046	1446.199951
1335.740369	1463.800049
1336.276637	1452.400024
1336.812848	1452.199951
1337.349004	1462.800049
1337.885105	1465.199951
1338.421149	1462.400024
1338.957138	1456.400024
1339.493071	1460.199951
1340.028949	1453.199951
1340.56477	1452.0
1341.100536	1440.400024
1341.636246	1454.599976
1342.171901	1460.400024
1342.7075	1452.0
1343.243043	1456.800049
1343.77853	1453.800049
1344.313962	1454.0
1344.849338	1450.199951
1345.384659	1456.800049
1345.919923	1454.599976
1346.455133	1439.0
1346.990286	1461.800049
1347.525384	1445.599976
1348.060426	1438.800049
1348.595412	1446.400024
1349.130343	1448.599976
1349.665218	1453.400024
1350.200037	1440.199951
1350.734801	1445.599976
1351.269509	1430.599976
1351.804162	1443.0
1352.338758	1450.800049
1352.8733	1440.599976
1353.407785	1445.199951
1353.942215	1450.599976
1354.476589	1446.599976
1355.010908	1451.599976
1355.545171	1430.400024
1356.079379	1434.599976
1356.61353	1431.0
1357.147627	1422.800049
1357.681667	1428.400024
1358.215652	1440.599976
1358.749582	1425.800049
1359.283456	1450.0
1359.817274	1443.400024
1360.351037	1438.199951
1360.884744	1439.800049
1361.418395	1416.800049
1361.951991	1450.599976
1362.485531	1434.400024
1363.019016	1433.800049
1363.552445	1427.800049
1364.085819	1435.599976
1364.619137	1423.199951
1365.1524	1447.199951
1365.685607	1432.800049
1366.218758	1435.199951
1366.751854	1450.599976
1367.284894	1429.400024
1367.817879	1428.0
1368.350808	1419.199951
1368.883682	1417.400024
1369.4165	1452.0
1369.949263	1436.599976
1370.48197	1461.599976
1371.014622	1442.400024
1371.547218	1417.599976
1372.079758	1424.800049
1372.612244	1423.400024
1373.144673	1427.800049
1373.677047	1424.599976
1374.209366	1420.199951
1374.741629	1417.800049
1375.273836	1434.199951
1375.805989	1420.800049
1376.338085	1441.800049
1376.870126	1416.199951
1377.402112	1442.400024
1377.934042	1411.199951
1378.465917	1415.800049
1378.997736	1424.0
1379.5295	1410.800049
1380.061208	1434.800049
1380.592861	1418.599976
1381.124459	1428.199951
1381.656	1411.800049
1382.187487	1425.0
1382.718918	1410.0
1383.250294	1422.0
1383.781614	1419.0
1384.312879	1429.400024
1384.844088	1414.199951
1385.375242	1426.800049
1385.90634	1434.800049
1386.437383	1474.599976
1386.968371	1456.599976
1387.499303	1525.800049
1388.03018	1739.800049
1388.561001	2676.0
1389.091767	3215.399902
1389.622478	2017.0
1390.153133	1554.0
1390.683733	1463.400024
1391.214277	1443.199951
1391.744766	1411.199951
1392.2752	1412.599976
1392.805578	1409.400024
1393.335901	1409.599976
1393.866168	1405.199951
1394.396381	1413.0
1394.926537	1409.199951
1395.456639	1410.0
1395.986685	1404.0
1396.516675	1412.400024
1397.046611	1423.800049
1397.576491	1396.0
1398.106315	1397.599976
1398.636084	1403.599976
1399.165798	1409.800049
1399.695457	1411.0
1400.22506	1411.599976
1400.754608	1400.599976
1401.284101	1415.800049
1401.813538	1397.800049
1402.34292	1395.800049
1402.872247	1399.599976
1403.401518	1394.599976
1403.930734	1393.599976
1404.459895	1402.800049
1404.989	1410.199951
1405.51805	1397.199951
1406.047045	1411.800049
1406.575984	1414.199951
1407.104869	1391.199951
1407.633697	1412.199951
1408.162471	1412.599976
1408.691189	1413.0
1409.219852	1423.800049
1409.74846	1472.400024
1410.277013	1533.599976
1410.80551	1505.199951
1411.333952	1426.199951
1411.862339	1411.400024
1412.39067	1389.800049
1412.918946	1389.0
1413.447167	1392.199951
1413.975333	1401.400024
1414.503444	1392.0
1415.031499	1398.800049
1415.559499	1401.400024
1416.087444	1393.599976
1416.615333	1387.400024
1417.143167	1387.400024
1417.670947	1389.0
1418.19867	1372.400024
1418.726339	1387.199951
1419.253952	1391.599976
1419.781511	1378.800049
1420.309014	1389.599976
1420.836461	1397.199951
1421.363854	1392.0
1421.891191	1401.400024
1422.418474	1376.400024
1422.945701	1384.0
1423.472872	1378.0
1423.999989	1385.400024
1424.52705	1395.0
1425.054057	1396.400024
1425.581008	1392.800049
1426.107904	1397.599976
1426.634745	1389.0
1427.16153	1384.0
1427.688261	1389.199951
1428.214936	1393.800049
1428.741556	1384.0
1429.268121	1391.199951
1429.794631	1389.0
1430.321085	1391.599976
1430.847485	1376.0
1431.373829	1371.199951
1431.900118	1387.800049
1432.426353	1371.0
1432.952532	1369.599976
1433.478655	1379.599976
1434.004724	1384.400024
1434.530738	1376.800049
1435.056696	1382.199951
1435.5826	1380.0
1436.108448	1371.599976
1436.634241	1360.0
1437.159979	1374.400024
1437.685662	1367.599976
1438.21129	1364.0
1438.736863	1364.599976
1439.262381	1383.0
1439.787843	1383.599976
1440.313251	1382.0
1440.838603	1363.800049
1441.3639	1381.800049
1441.889143	1369.800049
1442.41433	1374.800049
1442.939462	1370.0
1443.464539	1376.0
1443.989561	1354.0
1444.514528	1372.800049
1445.03944	1364.800049
1445.564297	1368.400024
1446.089099	1360.0
1446.613846	1350.199951
1447.138537	1376.400024
1447.663174	1350.800049
1448.187756	1357.599976
1448.712282	1366.599976
1449.236754	1374.800049
1449.761171	1369.800049
1450.285532	1369.199951
1450.809839	1356.800049
1451.33409	1358.199951
1451.858287	1368.199951
1452.382428	1357.599976
1452.906515	1366.599976
1453.430546	1353.0
1453.954523	1373.800049
1454.478444	1367.400024
1455.002311	1350.199951
1455.526123	1359.800049
1456.049879	1364.400024
1456.573581	1358.0
1457.097227	1362.599976
1457.620819	1352.800049
1458.144356	1359.800049
1458.667837	1355.0
1459.191264	1359.0
1459.714636	1356.400024
1460.237952	1358.0
1460.761214	1358.599976
1461.284421	1342.599976
1461.807573	1361.0
1462.33067	1350.400024
1462.853712	1355.800049
1463.376699	1341.199951
1463.899632	1370.400024
1464.422509	1346.599976
1464.945331	1353.599976
1465.468099	1338.599976
1465.990811	1333.199951
1466.513469	1360.400024
1467.036071	1350.400024
1467.558619	1348.0
1468.081112	1349.599976
1468.60355	1343.199951
1469.125933	1334.400024
1469.648261	1336.0
1470.170534	1353.0
1470.692752	1352.400024
1471.214916	1346.400024
1471.737024	1344.400024
1472.259078	1350.199951
1472.781077	1333.0
1473.303021	1338.0
1473.82491	1348.800049
1474.346744	1330.0
1474.868523	1346.199951
1475.390248	1344.199951
1475.911917	1331.800049
1476.433532	1341.400024
1476.955092	1334.800049
1477.476597	1347.599976
1477.998047	1337.199951
1478.519442	1332.800049
1479.040783	1333.199951
1479.562068	1335.800049
1480.083299	1334.0
1480.604475	1331.599976
1481.125596	1339.0
1481.646663	1338.199951
1482.167674	1342.599976
1482.688631	1336.800049
1483.209533	1339.199951
1483.73038	1337.800049
1484.251172	1331.199951
1484.771909	1333.0
1485.292592	1329.0
1485.81322	1314.400024
1486.333793	1328.0
1486.854311	1339.599976
1487.374775	1319.400024
1487.895183	1321.400024
1488.415537	1321.400024
1488.935836	1327.0
1489.456081	1326.0
1489.97627	1336.400024
1490.496405	1333.599976
1491.016485	1319.0
1491.536511	1327.800049
1492.056481	1326.599976
1492.576397	1329.599976
1493.096258	1333.599976
1493.616064	1332.800049
1494.135816	1323.400024
1494.655513	1333.599976
1495.175155	1328.0
1495.694742	1324.599976
1496.214274	1325.0
1496.733752	1306.599976
1497.253175	1315.800049
1497.772544	1326.0
1498.291858	1334.599976
1498.811116	1328.800049
1499.330321	1324.599976
1499.84947	1329.400024
1500.368565	1315.400024
1500.887605	1316.0
1501.406591	1317.599976
1501.925521	1301.599976
1502.444397	1308.0
1502.963219	1308.400024
1503.481985	1330.199951
1504.000697	1323.599976
1504.519355	1307.0
1505.037957	1306.599976
1505.556505	1314.400024
1506.074999	1319.199951
1506.593437	1302.0
1507.111821	1312.599976
1507.63015	1307.599976
1508.148425	1306.199951
1508.666645	1301.199951
1509.18481	1315.800049
1509.702921	1306.599976
1510.220977	1295.800049
1510.738979	1305.400024
1511.256925	1312.800049
1511.774817	1308.400024
1512.292655	1313.800049
1512.810438	1306.0
1513.328166	1308.199951
1513.84584	1309.199951
1514.363459	1299.0
1514.881023	1300.800049
1515.398533	1296.800049
1515.915988	1306.400024
1516.433389	1308.800049
1516.950734	1311.0
1517.468026	1302.400024
1517.985263	1304.800049
1518.502445	1319.0
1519.019572	1299.400024
1519.536645	1315.199951
1520.053664	1309.599976
1520.570628	1309.400024
1521.087537	1307.599976
1521.604392	1309.400024
1522.121192	1297.800049
1522.637937	1300.199951
1523.154628	1303.599976
1523.671265	1299.0
1524.187847	1307.599976
1524.704374	1312.400024
1525.220847	1300.0
1525.737265	1307.400024
1526.253629	1303.400024
1526.769938	1295.199951
1527.286192	1300.800049
1527.802392	1296.400024
1528.318538	1288.599976
1528.834629	1291.800049
1529.350666	1294.400024
1529.866648	1295.400024
1530.382575	1299.199951
1530.898448	1292.199951
1531.414266	1284.599976
1531.93003	1289.400024
1532.44574	1295.0
1532.961395	1301.199951
1533.476995	1307.199951
1533.992541	1296.599976
1534.508033	1304.599976
1535.02347	1306.0
1535.538852	1290.599976
1536.05418	1288.800049
1536.569454	1286.0
1537.084673	1300.800049
1537.599837	1294.199951
1538.114947	1295.199951
1538.630003	1300.800049
1539.145004	1291.400024
1539.659951	1293.599976
1540.174843	1295.800049
1540.689681	1280.199951
1541.204465	1285.400024
1541.719194	1304.199951
1542.233868	1304.800049
1542.748488	1278.599976
1543.263054	1293.199951
1543.777565	1300.800049
1544.292022	1290.800049
1544.806424	1289.400024
1545.320772	1285.400024
1545.835066	1293.0
1546.349305	1301.199951
1546.863489	1308.800049
1547.37762	1282.400024
1547.891696	1290.400024
1548.405717	1286.800049
1548.919684	1291.800049
1549.433597	1280.599976
1549.947455	1300.599976
1550.461259	1284.800049
1550.975009	1270.400024
1551.488704	1286.400024
1552.002345	1300.400024
1552.515931	1281.199951
1553.029463	1300.599976
1553.542941	1301.599976
1554.056364	1291.0
1554.569733	1291.599976
1555.083048	1282.800049
1555.596308	1273.400024
1556.109514	1280.400024
1556.622665	1279.400024
1557.135762	1273.199951
1557.648805	1285.199951
1558.161794	1283.800049
1558.674728	1291.599976
1559.187608	1284.400024
1559.700433	1285.400024
1560.213205	1290.199951
1560.725921	1284.199951
1561.238584	1278.199951
1561.751192	1292.199951
1562.263746	1279.800049
1562.776246	1266.599976
1563.288691	1285.199951
1563.801082	1280.599976
1564.313419	1268.0
1564.825701	1273.599976
1565.337929	1275.599976
1565.850103	1274.199951
1566.362223	1285.400024
1566.874288	1283.199951
1567.386299	1279.800049
1567.898256	1288.800049
1568.410158	1269.800049
1568.922007	1286.199951
1569.4338	1276.400024
1569.94554	1276.0
1570.457226	1275.400024
1570.968857	1278.0
1571.480434	1286.400024
1571.991956	1272.199951
1572.503425	1270.800049
1573.014839	1279.400024
1573.526199	1286.0
1574.037505	1281.400024
1574.548756	1285.199951
1575.059953	1266.199951
1575.571096	1277.199951
1576.082185	1263.0
1576.59322	1254.599976
1577.1042	1259.199951
1577.615126	1279.400024
1578.125998	1269.599976
1578.636816	1268.199951
1579.14758	1275.599976
1579.658289	1280.199951
1580.168944	1282.0
1580.679545	1277.0
1581.190092	1264.599976
1581.700585	1270.199951
1582.211023	1268.599976
1582.721407	1269.0
1583.231737	1271.599976
1583.742013	1261.800049
1584.252235	1264.199951
1584.762403	1267.400024
1585.272516	1259.199951
1585.782575	1254.599976
1586.292581	1281.400024
1586.802532	1274.199951
1587.312428	1281.199951
1587.822271	1275.800049
1588.33206	1266.599976
1588.841794	1276.199951
1589.351474	1265.0
1589.8611	1264.400024
1590.370672	1266.800049
1590.88019	1263.0
1591.389654	1276.400024
1591.899064	1263.199951
1592.408419	1263.800049
