1043.018714	914.0
1043.585098	910.666687
1044.151424	917.0
1044.717692	914.0
1045.283903	922.0
1045.850056	918.666687
1046.416151	909.0
1046.982188	915.333313
1047.548167	910.666687
1048.114089	918.666687
1048.679953	909.333313
1049.24576	897.0
1049.811509	910.666687
1050.3772	911.666687
1050.942833	916.0
1051.508408	906.333313
1052.073926	902.666687
1052.639387	889.333313
1053.204789	900.0
1053.770134	911.666687
1054.335421	895.333313
1054.900651	909.333313
1055.465823	906.0
1056.030937	902.666687
1056.595993	893.666687
1057.160992	903.333313
1057.725934	898.666687
1058.290817	899.0
1058.855643	895.0
1059.420411	883.666687
1059.985122	886.0
1060.549775	889.0
1061.114371	901.666687
1061.678908	881.0
1062.243389	884.666687
1062.807811	893.666687
1063.372176	902.666687
1063.936483	893.333313
1064.500733	890.0
1065.064925	891.0
1065.62906	900.333313
1066.193137	888.0
1066.757156	892.333313
1067.321118	891.333313
1067.885022	894.333313
1068.448869	893.333313
1069.012658	885.666687
1069.57639	889.666687
1070.140063	887.666687
1070.70368	883.0
1071.267239	880.666687
1071.83074	895.0
1072.394184	888.0
1072.95757	891.666687
1073.520899	879.666687
1074.08417	892.333313
1074.647383	880.666687
1075.21054	876.666687
1075.773638	882.0
1076.336679	893.666687
1076.899663	877.0
1077.462589	889.666687
1078.025457	887.333313
1078.588268	879.333313
1079.151022	887.333313
1079.713718	883.0
1080.276356	883.666687
1080.838937	890.333313
1081.401461	891.333313
1081.963927	885.666687
1082.526336	889.666687
1083.088687	873.333313
1083.650981	881.666687
1084.213217	878.333313
1084.775396	885.0
1085.337517	878.333313
1085.899581	889.0
1086.461587	889.333313
1087.023536	880.0
1087.585428	879.666687
1088.147262	878.333313
1088.709039	885.333313
1089.270758	869.333313
1089.83242	885.0
1090.394024	883.0
1090.955571	873.333313
1091.517061	869.0
1092.078493	872.333313
1092.639868	886.666687
1093.201185	886.333313
1093.762445	875.333313
1094.323648	881.333313
1094.884793	883.0
1095.445881	877.666687
1096.006911	880.666687
1096.567884	875.333313
1097.1288	886.666687
1097.689659	889.333313
1098.25046	889.0
1098.811203	885.333313
1099.37189	877.666687
1099.932518	883.333313
1100.49309	878.333313
1101.053604	867.666687
1101.614061	874.666687
1102.174461	878.333313
1102.734803	884.333313
1103.295088	883.333313
1103.855316	878.0
1104.415486	879.666687
1104.975599	881.0
1105.535655	877.666687
1106.095653	891.333313
1106.655594	882.0
1107.215478	881.0
1107.775305	884.666687
1108.335074	875.666687
1108.894786	881.333313
1109.45444	866.666687
1110.014038	887.666687
1110.573578	870.0
1111.133061	883.666687
1111.692486	877.0
1112.251854	873.333313
1112.811165	871.0
1113.370419	882.0
1113.929616	872.0
1114.488755	880.0
1115.047837	870.333313
1115.606862	875.333313
1116.16583	879.333313
1116.72474	872.0
1117.283593	876.333313
1117.842389	884.0
1118.401128	871.333313
1118.959809	876.0
1119.518433	867.0
1120.077	873.666687
1120.63551	865.666687
1121.193963	860.666687
1121.752358	855.333313
1122.310697	877.0
1122.868978	871.333313
1123.427202	876.333313
1123.985368	862.0
1124.543478	872.0
1125.10153	878.0
1125.659526	876.333313
1126.217464	873.333313
1126.775345	876.333313
1127.333168	862.0
1127.890935	868.333313
1128.448644	865.666687
1129.006297	882.0
1129.563892	869.666687
1130.12143	879.0
1130.678911	856.0
1131.236335	867.333313
1131.793701	874.333313
1132.351011	876.333313
1132.908263	870.333313
1133.465458	865.666687
1134.022597	869.0
1134.579678	871.0
1135.136702	872.666687
1135.693669	874.0
1136.250578	873.333313
1136.807431	875.666687
1137.364227	874.333313
1137.920965	870.0
1138.477647	873.0
1139.034271	869.0
1139.590839	862.333313
1140.147349	867.666687
1140.703802	874.666687
1141.260198	867.666687
1141.816537	873.666687
1142.37282	879.0
1142.929045	876.666687
1143.485213	866.333313
1144.041323	871.0
1144.597377	864.666687
1145.153374	876.0
1145.709314	878.0
1146.265197	866.333313
1146.821023	873.666687
1147.376792	875.666687
1147.932503	869.333313
1148.488158	872.666687
1149.043756	874.666687
1149.599297	871.333313
1150.154781	868.666687
1150.710207	877.666687
1151.265577	873.333313
1151.82089	883.666687
1152.376146	873.0
1152.931345	878.0
1153.486487	858.666687
1154.041572	868.333313
1154.5966	865.333313
1155.151571	881.0
1155.706485	870.0
1156.261342	875.0
1156.816142	872.333313
1157.370885	876.333313
1157.925572	865.0
1158.480201	876.666687
1159.034774	879.333313
1159.589289	877.0
1160.143748	868.666687
1160.698149	869.333313
1161.252494	873.0
1161.806782	865.666687
1162.361013	877.333313
1162.915187	872.666687
1163.469304	868.666687
1164.023364	877.666687
1164.577368	872.333313
1165.131314	882.333313
1165.685204	864.666687
1166.239036	869.666687
1166.792812	877.333313
1167.346531	871.666687
1167.900193	870.666687
1168.453798	860.666687
1169.007347	865.666687
1169.560838	861.333313
1170.114273	876.666687
1170.66765	877.0
1171.220971	861.666687
1171.774235	871.666687
1172.327443	867.333313
1172.880593	866.666687
1173.433687	864.666687
1173.986723	868.0
1174.539703	865.666687
1175.092626	861.666687
1175.645493	870.0
1176.198302	863.666687
1176.751055	859.666687
1177.303751	862.666687
1177.85639	871.333313
1178.408972	865.0
1178.961498	876.0
1179.513966	872.666687
1180.066378	861.666687
1180.618733	870.333313
1181.171032	868.0
1181.723273	871.0
1182.275458	871.666687
1182.827586	866.666687
1183.379657	866.666687
1183.931672	867.333313
1184.48363	868.666687
1185.035531	867.0
1185.587375	861.0
1186.139162	864.666687
1186.690893	870.0
1187.242567	865.666687
1187.794184	863.666687
1188.345745	869.0
1188.897249	868.666687
1189.448696	868.333313
1190.000086	868.0
1190.55142	869.0
1191.102697	866.333313
1191.653918	865.333313
1192.205081	861.666687
1192.756188	867.333313
1193.307238	885.0
1193.858232	864.333313
1194.409169	862.666687
1194.960049	871.666687
1195.510872	873.333313
1196.061639	862.0
1196.612349	862.666687
1197.163003	865.666687
1197.713599	868.333313
1198.264139	855.0
1198.814623	867.666687
1199.36505	865.666687
1199.91542	866.333313
1200.465734	864.0
1201.01599	865.333313
1201.566191	859.333313
1202.116334	864.0
1202.666421	860.666687
1203.216452	866.333313
1203.766425	869.0
1204.316343	857.0
1204.866203	865.666687
1205.416007	868.666687
1205.965754	871.0
1206.515445	855.0
1207.065079	870.333313
1207.614657	864.666687
1208.164177	864.0
1208.713642	851.333313
1209.26305	867.666687
1209.812401	865.666687
1210.361695	863.333313
1210.910933	858.666687
1211.460115	869.333313
1212.00924	860.0
1212.558308	869.333313
1213.10732	863.333313
1213.656275	871.333313
1214.205174	872.0
1214.754016	867.0
1215.302801	861.666687
1215.85153	865.666687
1216.400203	864.333313
1216.948819	857.666687
1217.497378	874.333313
1218.045881	868.333313
1218.594327	865.333313
1219.142717	863.333313
1219.691051	869.666687
1220.239327	866.0
1220.787548	866.333313
1221.335712	865.666687
1221.883819	858.666687
1222.43187	862.666687
1222.979864	865.666687
1223.527802	863.333313
1224.075683	867.666687
1224.623508	856.333313
1225.171277	868.666687
1225.718989	857.0
1226.266644	874.666687
1226.814243	863.0
1227.361786	866.333313
1227.909272	854.0
1228.456702	867.666687
1229.004075	857.666687
1229.551392	851.666687
1230.098652	854.333313
1230.645856	854.666687
1231.193003	856.0
1231.740094	859.666687
1232.287129	862.333313
1232.834107	862.666687
1233.381029	864.0
1233.927894	860.333313
1234.474703	862.666687
1235.021455	867.0
1235.568151	864.0
1236.114791	859.0
1236.661374	855.0
1237.207901	856.333313
1237.754372	860.666687
1238.300786	849.333313
1238.847144	865.0
1239.393445	857.0
1239.93969	859.0
1240.485879	856.333313
1241.032011	853.666687
1241.578087	859.333313
1242.124106	858.333313
1242.67007	852.0
1243.215976	858.333313
1243.761827	857.333313
1244.307621	854.0
1244.853359	849.333313
1245.39904	853.666687
1245.944665	838.333313
1246.490234	859.666687
1247.035746	853.0
1247.581203	844.333313
1248.126602	863.0
1248.671946	848.666687
1249.217233	851.333313
1249.762464	850.333313
1250.307638	852.666687
1250.852757	859.333313
1251.397819	852.333313
1251.942824	842.666687
1252.487774	856.666687
1253.032667	854.0
1253.577503	847.666687
1254.122284	858.0
1254.667008	857.666687
1255.211676	843.333313
1255.756288	845.333313
1256.300843	855.666687
1256.845342	847.666687
1257.389785	852.666687
1257.934172	850.0
1258.478502	854.333313
1259.022776	847.666687
1259.566994	844.0
1260.111156	868.0
1260.655261	850.0
1261.199311	849.0
1261.743304	854.0
1262.28724	850.666687
1262.831121	851.666687
1263.374945	850.666687
1263.918713	842.666687
1264.462425	850.666687
1265.006081	858.0
1265.54968	848.0
1266.093223	847.333313
1266.636711	851.0
1267.180141	848.0
1267.723516	857.333313
1268.266835	845.333313
1268.810097	849.333313
1269.353303	847.666687
1269.896453	842.666687
1270.439547	848.0
1270.982584	843.666687
1271.525566	839.333313
1272.068491	844.0
1272.61136	840.333313
1273.154173	850.0
1273.69693	843.333313
1274.239631	842.666687
1274.782275	848.333313
1275.324864	853.333313
1275.867396	841.0
1276.409872	850.333313
1276.952292	842.0
1277.494656	835.0
1278.036964	838.0
1278.579215	850.0
1279.121411	837.0
1279.66355	852.333313
1280.205634	843.0
1280.747661	840.333313
1281.289632	845.666687
1281.831547	842.666687
1282.373406	853.333313
1282.915209	840.666687
1283.456955	843.333313
1283.998646	842.0
1284.540281	847.666687
1285.081859	853.333313
1285.623381	895.333313
1286.164848	865.333313
1286.706258	840.0
1287.247612	841.0
1287.788911	841.666687
1288.330153	842.666687
1288.871339	835.0
1289.412469	838.333313
1289.953543	842.333313
1290.494561	830.0
1291.035523	839.0
1291.576428	835.666687
1292.117278	839.666687
1292.658072	834.0
1293.19881	850.0
1293.739492	834.333313
1294.280118	835.0
1294.820687	839.333313
1295.361201	843.0
1295.901659	832.666687
1296.442061	832.333313
1296.982406	826.0
1297.522696	840.666687
1298.06293	837.333313
1298.603108	837.0
1299.143229	843.0
1299.683295	851.0
1300.223305	848.666687
1300.763259	841.0
1301.303157	837.333313
1301.842999	831.666687
1302.382785	839.666687
1302.922515	841.0
1303.462189	836.333313
1304.001807	837.666687
1304.541369	835.0
1305.080875	828.0
1305.620326	839.333313
1306.15972	838.0
1306.699058	835.333313
1307.238341	831.0
1307.777567	837.0
1308.316738	838.333313
1308.855853	832.0
1309.394912	830.0
1309.933915	834.0
1310.472862	824.666687
1311.011753	832.666687
1311.550588	821.333313
1312.089367	837.666687
1312.62809	840.666687
1313.166758	826.0
1313.70537	835.333313
1314.243925	836.666687
1314.782425	839.333313
1315.320869	824.0
1315.859257	839.333313
1316.397589	838.666687
1316.935866	839.666687
1317.474086	834.0
1318.012251	830.666687
1318.55036	833.333313
1319.088413	829.0
1319.62641	835.333313
1320.164351	840.0
1320.702236	840.0
1321.240066	836.333313
1321.777839	836.666687
1322.315557	828.666687
1322.853219	837.0
1323.390826	834.0
1323.928376	832.333313
1324.465871	829.0
1325.003309	830.666687
1325.540692	823.0
1326.07802	835.0
1326.615291	827.666687
1327.152506	840.0
1327.689666	827.666687
1328.22677	838.666687
1328.763818	838.0
1329.300811	833.666687
1329.837747	831.333313
1330.374628	844.0
1330.911453	831.0
1331.448222	832.333313
1331.984936	835.333313
1332.521594	832.333313
1333.058196	830.666687
1333.594742	834.666687
1334.131232	836.666687
1334.667667	844.0
1335.204046	827.0
1335.740369	832.0
1336.276637	835.333313
1336.812848	826.0
1337.349004	832.333313
1337.885105	831.333313
1338.421149	841.0
1338.957138	824.333313
1339.493071	832.666687
1340.028949	825.0
1340.56477	837.0
1341.100536	835.0
1341.636246	830.666687
1342.171901	829.666687
1342.7075	828.0
1343.243043	833.333313
1343.77853	839.333313
1344.313962	838.0
1344.849338	831.666687
1345.384659	830.333313
1345.919923	838.333313
1346.455133	833.0
1346.990286	830.666687
1347.525384	839.0
1348.060426	825.666687
1348.595412	832.0
1349.130343	835.666687
1349.665218	830.333313
1350.200037	838.666687
1350.734801	831.0
1351.269509	831.333313
1351.804162	831.666687
1352.338758	826.0
1352.8733	831.333313
1353.407785	834.333313
1353.942215	838.333313
1354.476589	834.0
1355.010908	823.333313
1355.545171	834.0
1356.079379	834.333313
1356.61353	829.666687
1357.147627	831.0
1357.681667	832.666687
1358.215652	830.666687
1358.749582	836.0
1359.283456	825.333313
1359.817274	831.666687
1360.351037	838.0
1360.884744	829.666687
1361.418395	826.333313
1361.951991	829.333313
1362.485531	825.0
1363.019016	832.0
1363.552445	829.666687
1364.085819	839.0
1364.619137	830.666687
1365.1524	833.333313
1365.685607	834.333313
1366.218758	833.333313
1366.751854	829.0
1367.284894	825.0
1367.817879	826.666687
1368.350808	831.666687
1368.883682	826.333313
1369.4165	829.666687
1369.949263	830.666687
1370.48197	834.0
1371.014622	826.666687
1371.547218	826.666687
1372.079758	841.333313
1372.612244	819.333313
1373.144673	842.333313
1373.677047	827.666687
1374.209366	825.333313
1374.741629	830.666687
1375.273836	836.0
1375.805989	824.0
1376.338085	843.0
1376.870126	825.0
1377.402112	827.333313
1377.934042	828.0
1378.465917	823.333313
1378.997736	830.333313
1379.5295	833.0
1380.061208	824.666687
1380.592861	823.666687
1381.124459	826.0
1381.656	834.0
1382.187487	834.0
1382.718918	820.333313
1383.250294	839.0
1383.781614	833.0
1384.312879	826.0
1384.844088	829.333313
1385.375242	831.666687
1385.90634	832.666687
1386.437383	835.333313
1386.968371	829.333313
1387.499303	833.666687
1388.03018	845.666687
1388.561001	880.666687
1389.091767	895.0
1389.622478	846.333313
1390.153133	836.0
1390.683733	831.666687
1391.214277	834.666687
1391.744766	826.333313
1392.2752	829.666687
1392.805578	825.666687
1393.335901	816.0
1393.866168	833.0
1394.396381	832.0
1394.926537	816.666687
1395.456639	826.333313
1395.986685	818.666687
1396.516675	818.333313
1397.046611	821.666687
1397.576491	821.333313
1398.106315	820.333313
1398.636084	819.333313
1399.165798	830.333313
1399.695457	819.333313
1400.22506	825.333313
1400.754608	818.666687
1401.284101	824.0
1401.813538	816.333313
1402.34292	832.0
1402.872247	824.333313
1403.401518	827.666687
1403.930734	823.333313
1404.459895	822.333313
1404.989	837.333313
1405.51805	824.333313
1406.047045	830.0
1406.575984	826.0
1407.104869	826.0
1407.633697	823.666687
1408.162471	828.333313
1408.691189	825.666687
1409.219852	827.666687
1409.74846	827.333313
1410.277013	839.666687
1410.80551	827.666687
1411.333952	819.0
1411.862339	833.333313
1412.39067	822.0
1412.918946	825.0
1413.447167	817.333313
1413.975333	825.333313
1414.503444	821.666687
1415.031499	823.0
1415.559499	829.333313
1416.087444	821.666687
1416.615333	815.0
1417.143167	827.0
1417.670947	826.666687
1418.19867	825.666687
1418.726339	818.0
1419.253952	828.666687
1419.781511	827.666687
1420.309014	823.0
1420.836461	832.333313
1421.363854	822.0
1421.891191	821.666687
1422.418474	824.333313
1422.945701	831.333313
1423.472872	823.333313
1423.999989	833.333313
1424.52705	830.666687
1425.054057	834.0
1425.581008	823.333313
1426.107904	829.0
1426.634745	823.0
1427.16153	831.666687
1427.688261	823.0
1428.214936	823.0
1428.741556	818.0
1429.268121	831.666687
1429.794631	826.666687
1430.321085	827.0
1430.847485	828.666687
1431.373829	816.666687
1431.900118	832.333313
1432.426353	824.666687
1432.952532	821.0
1433.478655	818.333313
1434.004724	820.0
1434.530738	815.666687
1435.056696	829.333313
1435.5826	819.666687
1436.108448	828.0
1436.634241	818.0
1437.159979	828.333313
1437.685662	825.666687
1438.21129	826.333313
1438.736863	822.666687
1439.262381	818.666687
1439.787843	828.0
1440.313251	818.0
1440.838603	826.0
1441.3639	825.0
1441.889143	818.333313
1442.41433	824.666687
1442.939462	827.0
1443.464539	815.0
1443.989561	822.0
1444.514528	819.333313
1445.03944	822.666687
1445.564297	813.0
1446.089099	819.666687
1446.613846	820.666687
1447.138537	819.333313
1447.663174	821.0
1448.187756	816.666687
1448.712282	819.0
1449.236754	820.333313
1449.761171	813.666687
1450.285532	827.666687
1450.809839	820.666687
1451.33409	822.666687
1451.858287	827.666687
1452.382428	820.333313
1452.906515	819.333313
1453.430546	821.666687
1453.954523	825.0
1454.478444	823.666687
1455.002311	814.0
1455.526123	818.333313
1456.049879	826.333313
1456.573581	824.0
1457.097227	819.666687
1457.620819	816.666687
1458.144356	816.666687
1458.667837	816.0
1459.191264	825.333313
1459.714636	826.0
1460.237952	817.0
1460.761214	821.666687
1461.284421	823.0
1461.807573	826.0
1462.33067	822.666687
1462.853712	813.666687
1463.376699	815.333313
1463.899632	821.666687
1464.422509	817.666687
1464.945331	820.333313
1465.468099	823.666687
1465.990811	815.666687
1466.513469	819.333313
1467.036071	825.333313
1467.558619	824.666687
1468.081112	823.666687
1468.60355	815.666687
1469.125933	815.666687
1469.648261	826.666687
1470.170534	826.666687
1470.692752	820.666687
1471.214916	819.333313
1471.737024	811.0
1472.259078	829.0
1472.781077	818.333313
1473.303021	822.333313
1473.82491	816.333313
1474.346744	816.333313
1474.868523	819.0
1475.390248	826.0
1475.911917	809.666687
1476.433532	805.333313
1476.955092	808.666687
1477.476597	825.666687
1477.998047	825.0
1478.519442	814.0
1479.040783	819.666687
1479.562068	818.666687
1480.083299	824.333313
1480.604475	817.333313
1481.125596	821.666687
1481.646663	816.333313
1482.167674	819.0
1482.688631	817.333313
1483.209533	806.666687
1483.73038	815.333313
1484.251172	808.666687
1484.771909	816.333313
1485.292592	815.0
1485.81322	823.666687
1486.333793	809.0
1486.854311	807.0
1487.374775	815.666687
1487.895183	824.333313
1488.415537	814.666687
1488.935836	816.333313
1489.456081	815.666687
1489.97627	812.333313
1490.496405	809.0
1491.016485	819.0
1491.536511	815.0
1492.056481	816.333313
1492.576397	824.0
1493.096258	815.333313
1493.616064	817.333313
1494.135816	815.666687
1494.655513	816.666687
1495.175155	815.333313
1495.694742	818.0
1496.214274	816.0
1496.733752	810.0
1497.253175	810.333313
1497.772544	812.666687
1498.291858	813.0
1498.811116	815.0
1499.330321	813.0
1499.84947	822.333313
1500.368565	815.0
1500.887605	820.0
1501.406591	819.333313
1501.925521	819.0
1502.444397	814.0
1502.963219	815.333313
1503.481985	814.333313
1504.000697	816.0
1504.519355	817.333313
1505.037957	821.333313
1505.556505	811.666687
1506.074999	810.666687
1506.593437	815.333313
1507.111821	817.333313
1507.63015	819.0
1508.148425	812.0
1508.666645	820.666687
1509.18481	809.0
1509.702921	807.0
1510.220977	816.666687
1510.738979	820.666687
1511.256925	807.666687
1511.774817	813.0
1512.292655	805.0
1512.810438	810.0
1513.328166	812.666687
1513.84584	818.333313
1514.363459	810.0
1514.881023	815.333313
1515.398533	816.0
1515.915988	811.666687
1516.433389	806.0
1516.950734	816.666687
1517.468026	811.666687
1517.985263	814.333313
1518.502445	809.333313
1519.019572	812.666687
1519.536645	809.0
1520.053664	807.0
1520.570628	804.333313
1521.087537	804.0
1521.604392	812.666687
1522.121192	817.333313
1522.637937	821.666687
1523.154628	813.0
1523.671265	812.666687
1524.187847	805.666687
1524.704374	810.666687
1525.220847	806.0
1525.737265	813.666687
1526.253629	820.666687
1526.769938	817.666687
1527.286192	817.0
1527.802392	808.666687
1528.318538	812.0
1528.834629	810.666687
1529.350666	807.0
1529.866648	811.333313
1530.382575	814.0
1530.898448	813.333313
1531.414266	803.333313
1531.93003	810.333313
1532.44574	807.666687
1532.961395	810.333313
1533.476995	811.666687
1533.992541	812.666687
1534.508033	816.0
1535.02347	809.666687
1535.538852	806.333313
1536.05418	816.666687
1536.569454	801.666687
1537.084673	815.333313
1537.599837	812.333313
1538.114947	820.0
1538.630003	811.333313
1539.145004	811.333313
1539.659951	812.333313
1540.174843	811.333313
1540.689681	810.333313
1541.204465	814.0
1541.719194	814.0
1542.233868	817.666687
1542.748488	808.333313
1543.263054	812.666687
1543.777565	806.666687
1544.292022	809.666687
1544.806424	805.333313
1545.320772	809.333313
1545.835066	815.666687
1546.349305	815.333313
1546.863489	818.666687
1547.37762	801.333313
1547.891696	815.666687
1548.405717	807.333313
1548.919684	803.333313
1549.433597	811.333313
1549.947455	809.0
1550.461259	805.333313
1550.975009	806.0
1551.488704	811.333313
1552.002345	812.0
1552.515931	808.333313
1553.029463	814.666687
1553.542941	806.666687
1554.056364	809.333313
1554.569733	811.333313
1555.083048	808.0
1555.596308	802.666687
1556.109514	814.0
1556.622665	811.0
1557.135762	803.0
1557.648805	807.333313
1558.161794	796.0
1558.674728	808.666687
1559.187608	814.0
1559.700433	811.333313
1560.213205	804.333313
1560.725921	806.0
1561.238584	811.333313
1561.751192	809.333313
1562.263746	819.0
1562.776246	796.666687
1563.288691	798.0
1563.801082	814.333313
1564.313419	809.0
1564.825701	806.333313
1565.337929	805.0
1565.850103	802.333313
1566.362223	806.666687
1566.874288	807.666687
1567.386299	813.666687
1567.898256	813.333313
1568.410158	809.0
1568.922007	812.666687
1569.4338	810.0
1569.94554	814.0
1570.457226	807.333313
1570.968857	810.333313
1571.480434	809.0
1571.991956	808.333313
1572.503425	802.666687
1573.014839	809.0
1573.526199	809.666687
1574.037505	811.333313
1574.548756	804.333313
1575.059953	806.666687
1575.571096	807.666687
1576.082185	806.0
1576.59322	806.333313
1577.1042	808.333313
1577.615126	809.666687
1578.125998	811.666687
1578.636816	805.0
1579.14758	805.0
1579.658289	805.333313
1580.168944	811.333313
1580.679545	806.666687
1581.190092	806.0
1581.700585	799.0
1582.211023	806.666687
1582.721407	809.666687
1583.231737	800.333313
1583.742013	811.333313
1584.252235	808.666687
1584.762403	802.333313
1585.272516	805.0
1585.782575	802.666687
1586.292581	809.666687
1586.802532	804.333313
1587.312428	796.333313
1587.822271	803.666687
1588.33206	809.333313
1588.841794	808.0
1589.351474	799.666687
1589.8611	798.333313
1590.370672	801.666687
1590.88019	806.666687
1591.389654	811.333313
1591.899064	804.333313
1592.408419	800.333313
