1042.980685	1223.0
1043.547124	1209.5
1044.113505	1197.5
1044.679828	1200.75
1045.246093	1207.0
1045.8123	1218.25
1046.378449	1213.0
1046.94454	1205.25
1047.510573	1217.0
1048.076548	1214.0
1048.642465	1221.25
1049.208325	1203.75
1049.774126	1205.25
1050.339869	1200.25
1050.905555	1205.0
1051.471183	1217.5
1052.036752	1204.75
1052.602264	1200.75
1053.167718	1220.75
1053.733114	1207.75
1054.298452	1213.75
1054.863733	1209.5
1055.428955	1201.75
1055.994119	1204.25
1056.559226	1216.25
1057.124275	1223.5
1057.689266	1203.25
1058.254199	1214.5
1058.819074	1207.0
1059.383891	1219.25
1059.94865	1217.0
1060.513352	1211.75
1061.077996	1211.0
1061.642582	1208.0
1062.20711	1215.75
1062.77158	1217.75
1063.335992	1221.0
1063.900347	1217.25
1064.464643	1211.25
1065.028882	1213.75
1065.593063	1217.0
1066.157187	1220.75
1066.721252	1213.0
1067.28526	1214.0
1067.84921	1209.5
1068.413102	1212.5
1068.976936	1221.0
1069.540713	1226.0
1070.104431	1234.75
1070.668092	1225.75
1071.231696	1224.25
1071.795241	1214.75
1072.358729	1230.5
1072.922159	1222.25
1073.485531	1228.25
1074.048845	1210.5
1074.612102	1224.25
1075.175301	1229.5
1075.738442	1227.0
1076.301525	1217.5
1076.864551	1215.5
1077.427519	1220.5
1077.990429	1245.5
1078.553281	1220.75
1079.116076	1229.75
1079.678813	1227.25
1080.241492	1219.5
1080.804114	1235.5
1081.366678	1231.25
1081.929184	1224.5
1082.491633	1226.25
1083.054024	1227.0
1083.616357	1237.75
1084.178632	1241.25
1084.74085	1232.75
1085.30301	1229.5
1085.865113	1228.5
1086.427158	1227.25
1086.989145	1217.5
1087.551074	1235.25
1088.112946	1236.75
1088.67476	1223.25
1089.236517	1230.0
1089.798216	1229.75
1090.359857	1232.75
1090.92144	1225.75
1091.482966	1238.5
1092.044435	1240.5
1092.605845	1237.25
1093.167199	1226.75
1093.728494	1225.0
1094.289732	1237.5
1094.850912	1239.75
1095.412035	1244.0
1095.9731	1229.25
1096.534107	1219.0
1097.095057	1241.0
1097.65595	1234.25
1098.216784	1224.0
1098.777561	1229.0
1099.338281	1225.5
1099.898943	1233.5
1100.459547	1234.25
1101.020094	1224.5
1101.580584	1244.25
1102.141015	1235.0
1102.701389	1236.5
1103.261706	1242.75
1103.821965	1245.5
1104.382167	1243.0
1104.942311	1224.75
1105.502397	1230.75
1106.062426	1243.25
1106.622398	1237.75
1107.182312	1244.75
1107.742168	1226.75
1108.301967	1246.25
1108.861708	1237.25
1109.421392	1244.25
1109.981019	1234.25
1110.540587	1235.0
1111.100099	1242.5
1111.659553	1228.75
1112.218949	1250.75
1112.778288	1232.0
1113.33757	1239.0
1113.896794	1250.25
1114.45596	1229.75
1115.015069	1245.25
1115.574121	1255.75
1116.133115	1254.5
1116.692052	1246.75
1117.250931	1254.5
1117.809753	1273.75
1118.368517	1246.5
1118.927224	1250.25
1119.485873	1253.5
1120.044465	1246.5
1120.603	1249.5
1121.161477	1256.0
1121.719897	1266.75
1122.278259	1270.5
1122.836564	1250.75
1123.394812	1262.0
1123.953002	1258.0
1124.511135	1251.75
1125.06921	1265.25
1125.627228	1262.0
1126.185189	1276.0
1126.743092	1269.5
1127.300938	1267.0
1127.858726	1296.5
1128.416457	1272.75
1128.974131	1279.5
1129.531748	1271.0
1130.089307	1284.75
1130.646808	1275.25
1131.204252	1263.0
1131.761639	1266.0
1132.318969	1266.0
1132.876241	1275.75
1133.433456	1267.25
1133.990614	1272.25
1134.547714	1264.75
1135.104757	1261.5
1135.661743	1273.5
1136.218671	1283.75
1136.775542	1269.25
1137.332356	1275.75
1137.889112	1274.5
1138.445811	1285.25
1139.002453	1275.5
1139.559037	1269.0
1140.115565	1281.25
1140.672035	1278.25
1141.228447	1274.25
1141.784803	1284.25
1142.341101	1273.5
1142.897342	1275.25
1143.453525	1281.0
1144.009651	1284.75
1144.565721	1296.75
1145.121732	1295.0
1145.677687	1283.0
1146.233584	1303.0
1146.789424	1285.5
1147.345207	1308.75
1147.900933	1292.5
1148.456601	1307.5
1149.012212	1289.5
1149.567766	1297.75
1150.123263	1302.75
1150.678702	1311.75
1151.234085	1301.25
1151.78941	1301.5
1152.344678	1300.0
1152.899888	1304.25
1153.455042	1295.0
1154.010138	1304.5
1154.565177	1297.75
1155.120159	1304.0
1155.675084	1308.0
1156.229951	1312.0
1156.784762	1297.5
1157.339515	1304.5
1157.894211	1307.0
1158.44885	1306.25
1159.003432	1322.0
1159.557956	1314.75
1160.112424	1316.5
1160.666834	1309.75
1161.221187	1303.5
1161.775483	1322.5
1162.329722	1318.5
1162.883904	1310.0
1163.438029	1300.0
1163.992096	1313.25
1164.546107	1324.75
1165.10006	1319.0
1165.653956	1319.5
1166.207795	1307.5
1166.761577	1323.75
1167.315302	1317.5
1167.86897	1317.25
1168.422581	1340.0
1168.976134	1316.0
1169.529631	1335.25
1170.08307	1311.75
1170.636453	1325.5
1171.189778	1319.25
1171.743046	1313.75
1172.296257	1323.0
1172.849412	1315.75
1173.402509	1324.25
1173.955549	1325.0
1174.508532	1321.75
1175.061458	1325.25
1175.614327	1316.5
1176.167138	1325.0
1176.719893	1314.25
1177.272591	1326.0
1177.825232	1328.0
1178.377816	1326.75
1178.930342	1331.25
1179.482812	1322.5
1180.035225	1323.25
1180.587581	1326.0
1181.139879	1343.0
1181.692121	1340.0
1182.244306	1323.25
1182.796434	1323.75
1183.348504	1341.5
1183.900518	1327.75
1184.452475	1341.5
1185.004375	1334.75
1185.556218	1333.0
1186.108004	1349.5
1186.659733	1331.5
1187.211405	1342.0
1187.76302	1320.5
1188.314578	1349.5
1188.866079	1352.25
1189.417523	1344.25
1189.96891	1344.75
1190.520241	1339.25
1191.071514	1338.0
1191.622731	1359.75
1192.17389	1328.25
1192.724993	1333.0
1193.276039	1360.0
1193.827027	1347.25
1194.377959	1340.75
1194.928834	1334.0
1195.479653	1350.0
1196.030414	1350.0
1196.581118	1355.75
1197.131766	1343.5
1197.682356	1347.5
1198.23289	1343.75
1198.783367	1347.75
1199.333786	1352.25
1199.88415	1357.5
1200.434456	1343.25
1200.984705	1355.25
1201.534898	1331.75
1202.085033	1356.0
1202.635112	1354.25
1203.185134	1365.75
1203.735099	1346.5
1204.285007	1362.5
1204.834859	1357.75
1205.384653	1357.0
1205.934391	1344.75
1206.484072	1361.25
1207.033696	1366.25
1207.583263	1343.75
1208.132774	1364.0
1208.682228	1360.75
1209.231624	1352.75
1209.780965	1356.25
1210.330248	1352.75
1210.879474	1359.0
1211.428644	1362.25
1211.977757	1369.0
1212.526813	1376.0
1213.075813	1364.5
1213.624755	1365.5
1214.173641	1359.75
1214.72247	1358.75
1215.271242	1376.5
1215.819958	1365.25
1216.368617	1370.5
1216.917219	1378.5
1217.465764	1385.5
1218.014253	1359.0
1218.562685	1371.75
1219.11106	1364.0
1219.659378	1370.75
1220.20764	1361.25
1220.755845	1377.25
1221.303993	1374.25
1221.852085	1373.25
1222.400119	1369.75
1222.948097	1386.75
1223.496019	1373.5
1224.043883	1373.0
1224.591691	1393.25
1225.139443	1363.25
1225.687137	1365.5
1226.234775	1378.0
1226.782357	1387.0
1227.329881	1379.25
1227.877349	1380.5
1228.42476	1388.5
1228.972115	1377.75
1229.519413	1370.75
1230.066654	1386.25
1230.613839	1375.0
1231.160967	1386.0
1231.708038	1382.75
1232.255053	1375.0
1232.802011	1398.0
1233.348912	1388.25
1233.895757	1381.75
1234.442545	1381.5
1234.989277	1395.75
1235.535951	1394.25
1236.08257	1383.0
1236.629131	1387.5
1237.175636	1377.0
1237.722085	1385.25
1238.268477	1386.75
1238.814812	1395.0
1239.361091	1403.75
1239.907313	1382.5
1240.453478	1400.5
1240.999587	1385.75
1241.54564	1400.5
1242.091636	1400.25
1242.637575	1398.25
1243.183457	1392.25
1243.729284	1404.25
1244.275053	1394.5
1244.820766	1378.5
1245.366423	1377.75
1245.912022	1403.5
1246.457566	1391.75
1247.003053	1411.25
1247.548483	1394.5
1248.093857	1403.75
1248.639174	1404.5
1249.184435	1400.25
1249.729639	1405.0
1250.274787	1393.75
1250.819878	1418.0
1251.364912	1391.25
1251.909891	1399.75
1252.454812	1391.25
1252.999677	1410.5
1253.544486	1421.5
1254.089238	1407.25
1254.633934	1399.75
1255.178573	1419.0
1255.723156	1396.0
1256.267682	1414.5
1256.812152	1420.0
1257.356565	1401.25
1257.900922	1404.75
1258.445223	1412.0
1258.989467	1411.75
1259.533654	1413.75
1260.077785	1430.25
1260.62186	1401.5
1261.165878	1396.5
1261.70984	1415.5
1262.253745	1413.75
1262.797594	1417.75
1263.341386	1408.5
1263.885123	1409.75
1264.428802	1408.5
1264.972425	1437.0
1265.515992	1453.0
1266.059503	1438.75
1266.602957	1430.25
1267.146354	1408.5
1267.689696	1426.0
1268.23298	1431.5
1268.776209	1415.5
1269.319381	1436.0
1269.862497	1423.25
1270.405556	1407.5
1270.948559	1429.5
1271.491506	1444.75
1272.034396	1419.0
1272.57723	1421.75
1273.120007	1430.75
1273.662728	1431.5
1274.205393	1434.5
1274.748002	1421.0
1275.290554	1442.75
1275.83305	1415.5
1276.375489	1426.25
1276.917872	1444.5
1277.460199	1423.5
1278.00247	1435.0
1278.544684	1426.0
1279.086842	1430.0
1279.628943	1432.0
1280.170989	1417.75
1280.712978	1424.75
1281.25491	1420.75
1281.796787	1428.5
1282.338607	1436.75
1282.880371	1448.0
1283.422078	1443.25
1283.963729	1450.25
1284.505324	1475.75
1285.046863	1496.0
1285.588345	1725.0
1286.129772	1926.5
1286.671142	1663.5
1287.212455	1473.25
1287.753713	1458.5
1288.294914	1451.0
1288.836059	1455.5
1289.377147	1456.0
1289.91818	1446.75
1290.459156	1455.5
1291.000076	1445.0
1291.54094	1438.5
1292.081747	1462.5
1292.622499	1447.25
1293.163194	1429.5
1293.703833	1437.75
1294.244415	1458.25
1294.784942	1448.0
1295.325412	1439.0
1295.865826	1439.75
1296.406184	1460.25
1296.946486	1446.75
1297.486731	1442.0
1298.026921	1447.5
1298.567054	1458.5
1299.107131	1458.75
1299.647152	1450.25
1300.187116	1449.75
1300.727025	1437.75
1301.266877	1442.0
1301.806673	1469.5
1302.346413	1448.75
1302.886097	1452.75
1303.425725	1451.5
1303.965297	1459.0
1304.504812	1458.25
1305.044272	1448.75
1305.583675	1444.25
1306.123022	1459.25
1306.662313	1470.0
1307.201548	1454.0
1307.740727	1452.75
1308.279849	1477.25
1308.818916	1462.5
1309.357926	1448.75
1309.896881	1460.75
1310.435779	1465.25
1310.974621	1468.5
1311.513407	1451.5
1312.052137	1459.0
1312.590811	1463.0
1313.129429	1453.0
1313.667991	1469.0
1314.206497	1465.5
1314.744946	1471.25
1315.28334	1488.75
1315.821678	1454.0
1316.359959	1471.5
1316.898184	1462.25
1317.436354	1472.75
1317.974467	1468.25
1318.512525	1454.75
1319.050526	1471.0
1319.588471	1486.25
1320.12636	1466.75
1320.664194	1471.0
1321.201971	1456.5
1321.739692	1469.75
1322.277357	1471.75
1322.814967	1458.25
1323.35252	1474.25
1324.427458	1461.5
1324.964843	1486.25
1325.502173	1474.0
1326.039446	1503.75
1326.576663	1458.25
1327.113824	1476.0
1327.65093	1475.0
1328.187979	1501.5
1328.724972	1476.5
1329.26191	1488.5
1329.798791	1484.5
1330.335617	1499.5
1330.872386	1504.75
1331.4091	1476.5
1331.945758	1473.75
1332.48236	1486.75
1333.018905	1485.75
1333.555395	1483.5
1334.091829	1478.75
1334.628207	1477.5
1335.164529	1476.75
1335.700796	1488.0
1336.237006	1492.0
1336.77316	1489.75
1337.309259	1483.25
1337.845301	1479.0
1338.381288	1492.25
1338.917219	1493.0
1339.453094	1487.75
1339.988913	1464.25
1340.524676	1489.25
1341.060383	1465.75
1341.596034	1490.5
1342.13163	1476.5
1342.66717	1484.5
1343.202653	1488.75
1343.738081	1500.25
1344.273453	1500.25
1344.80877	1496.5
1345.34403	1482.0
1345.879235	1480.25
1346.414383	1503.75
1346.949476	1499.5
1347.484513	1496.0
1348.019494	1491.0
1348.55442	1491.75
1349.089289	1507.75
1349.624103	1498.25
1350.158861	1507.0
1350.693563	1468.0
1351.228209	1503.25
1351.7628	1501.5
1352.297334	1491.75
1352.831813	1507.25
1353.366236	1492.5
1353.900604	1503.25
1354.434915	1494.5
1354.969171	1487.25
1355.503371	1498.0
1356.037515	1495.5
1356.571604	1488.0
1357.105636	1504.25
1357.639613	1508.5
1358.173535	1499.0
1358.7074	1507.5
1359.24121	1505.5
1359.774964	1510.5
1360.308662	1508.5
1360.842304	1527.0
1361.375891	1509.0
1361.909422	1508.5
1362.442897	1520.25
1362.976317	1505.75
1363.50968	1499.0
1364.042989	1500.75
1364.576241	1511.0
1365.109438	1504.25
1365.642579	1520.0
1366.175664	1506.5
1366.708693	1531.5
1367.241667	1509.0
1367.774585	1515.5
1368.307448	1513.75
1368.840255	1518.0
1369.373006	1509.75
1369.905701	1516.25
1370.438341	1525.0
1370.970925	1541.0
1371.503454	1508.5
1372.035926	1514.75
1372.568344	1518.75
1373.100705	1516.25
1373.633011	1513.0
1374.165261	1514.75
1374.697456	1514.5
1375.229595	1521.5
1375.761678	1511.75
1376.293705	1519.0
1376.825677	1516.0
1377.357594	1531.75
1377.889455	1533.0
1378.42126	1536.5
1378.953009	1535.75
1379.484703	1512.0
1380.016342	1535.25
1380.547924	1532.75
1381.079452	1539.5
1381.610923	1527.5
1382.142339	1531.5
1382.673699	1521.25
1383.205004	1529.25
1383.736253	1539.0
1384.267447	1523.0
1384.798585	1539.25
1385.329668	1526.25
1385.860695	1543.25
1386.391666	1542.5
1386.922582	1560.75
1387.453442	1551.0
1387.984247	1559.75
1388.514996	1719.25
1389.04569	2286.25
1389.576328	2203.75
1390.10691	1662.75
1390.637437	1557.5
1391.167909	1559.75
1391.698325	1554.0
1392.228685	1529.75
1392.75899	1538.5
1393.28924	1525.5
1393.819434	1530.25
1394.349572	1540.25
1394.879655	1541.75
1395.409683	1545.5
1395.939655	1534.0
1396.469571	1528.5
1396.999432	1550.25
1397.529237	1540.75
1398.058987	1542.75
1398.588682	1528.75
1399.118321	1546.0
1399.647905	1550.5
1400.177433	1539.0
1400.706906	1536.0
1401.236323	1553.75
1401.765685	1553.25
1402.294991	1542.0
1402.824242	1546.0
1403.353437	1545.25
1403.882577	1553.0
1404.411662	1551.0
1404.940691	1536.25
1405.469665	1553.0
1405.998583	1558.5
1406.527446	1534.0
1407.056253	1557.25
1407.585005	1558.75
1408.113702	1561.0
1408.642343	1560.0
1409.170929	1571.75
1409.69946	1580.25
1410.227935	1603.0
1410.756354	1621.5
1411.284719	1559.75
1411.813028	1562.5
1412.341281	1547.0
1412.869479	1552.0
1413.397622	1553.25
1413.92571	1560.25
1414.453742	1548.75
1414.981718	1586.25
1415.50964	1567.0
1416.037506	1564.25
1416.565316	1564.0
1417.093072	1577.75
1417.620772	1553.5
1418.148416	1544.25
1418.676005	1554.0
1419.203539	1580.75
1419.731018	1561.0
1420.258441	1554.5
1420.785809	1568.75
1421.313122	1584.0
1421.840379	1570.5
1422.367582	1571.25
1422.894728	1557.0
1423.42182	1552.5
1423.948856	1577.0
1424.475837	1562.5
1425.002762	1563.75
1425.529633	1587.25
1426.056448	1575.75
1426.583207	1581.25
1427.109912	1588.25
1427.636561	1578.75
1428.163155	1577.25
1428.689694	1555.75
1429.216177	1588.5
1429.742605	1548.75
1430.268978	1569.25
1430.795296	1571.5
1431.321558	1580.0
1431.847765	1570.25
1432.373917	1576.75
1432.900014	1566.5
1433.426056	1568.0
1433.952042	1559.0
1434.477973	1561.5
1435.003849	1555.25
1435.529669	1582.25
1436.055435	1577.0
1436.581145	1558.5
1437.1068	1573.5
1437.632399	1562.5
1438.157944	1577.25
1438.683433	1589.75
1439.208868	1562.25
1439.734247	1558.0
1440.25957	1578.25
1440.784839	1582.75
1441.310053	1571.0
1441.835211	1573.25
1442.360314	1589.75
1442.885362	1568.25
1443.410355	1573.0
1443.935292	1581.0
1444.460175	1585.25
1444.985002	1584.25
1445.509774	1579.5
1446.034491	1575.5
1446.559153	1579.0
1447.08376	1587.5
1447.608312	1573.0
1448.132808	1588.0
1448.65725	1582.25
1449.181636	1562.0
1449.705967	1574.25
1450.230243	1597.5
1450.754464	1585.25
1451.27863	1580.75
1451.802741	1582.75
1452.326797	1568.0
1452.850797	1581.25
1453.374743	1571.5
1453.898633	1588.5
1454.422468	1576.5
1454.946249	1575.0
1455.469974	1585.75
1455.993644	1591.25
1456.517259	1575.25
1457.040819	1589.5
1457.564324	1583.5
1458.087773	1583.5
1458.611168	1604.5
1459.134508	1583.5
1459.657793	1600.0
1460.181022	1592.0
1460.704197	1581.0
1461.227316	1579.25
1461.750381	1567.75
1462.27339	1586.0
1462.796345	1589.75
1463.319244	1596.25
1463.842089	1595.5
1464.364878	1601.25
1464.887613	1594.75
1465.410292	1584.5
1465.932916	1584.75
1466.455486	1578.25
1466.978	1580.5
1467.50046	1595.25
1468.022864	1579.0
1468.545214	1586.5
1469.067508	1579.75
1469.589748	1591.5
1470.111932	1595.0
1470.634062	1579.0
1471.156136	1581.75
1471.678156	1585.0
1472.20012	1589.0
1472.72203	1585.75
1473.243885	1565.0
1473.765685	1569.5
1474.28743	1595.0
1474.80912	1579.5
1475.330755	1590.25
1475.852335	1582.25
1476.37386	1591.75
1476.89533	1596.75
1477.416745	1590.75
1477.938106	1591.5
1478.459411	1600.0
1478.980662	1595.25
1479.501857	1590.5
1480.022998	1582.25
1480.544084	1578.25
1481.065115	1588.75
1481.586091	1588.5
1482.107012	1576.25
1482.627878	1593.0
1483.14869	1599.25
1483.669446	1578.25
1484.190148	1572.75
1484.710794	1590.25
1485.231386	1577.5
1485.751923	1577.0
1486.272406	1593.25
1486.792833	1602.75
1487.313205	1577.0
1487.833523	1595.5
1488.353786	1585.75
1488.873994	1580.75
1489.394147	1598.75
1489.914245	1587.75
1490.434288	1591.25
1490.954277	1602.5
1491.474211	1590.5
1491.99409	1600.25
1492.513914	1596.25
1493.033683	1591.75
1493.553398	1585.75
1494.073057	1600.5
1494.592662	1605.5
1495.112212	1575.0
1495.631708	1590.0
1496.151148	1585.75
1496.670534	1596.25
1497.189865	1589.0
1497.709141	1597.0
1498.228362	1597.0
1498.747529	1595.5
1499.266641	1590.0
1499.785698	1587.75
1500.3047	1593.25
1500.823648	1592.25
1501.34254	1600.0
1501.861379	1601.75
1502.380162	1595.75
1502.89889	1590.75
1503.417564	1616.75
1503.936183	1612.0
1504.454748	1605.0
1504.973257	1591.75
1505.491712	1604.5
1506.010112	1588.0
1506.528458	1593.0
1507.046748	1589.5
1507.564984	1582.5
1508.083166	1586.5
1508.601292	1595.75
1509.119364	1600.0
1509.637381	1582.5
1510.155344	1595.75
1510.673252	1591.25
1511.191105	1594.5
1511.708903	1590.0
1512.226647	1594.5
1512.744336	1602.25
1513.261971	1619.25
1513.77955	1617.0
1514.297076	1598.5
1514.814546	1601.0
1515.331962	1597.75
1515.849323	1597.25
1516.366629	1601.75
1516.883881	1597.5
1517.401078	1607.0
1517.918221	1601.0
1518.435309	1605.0
1518.952342	1605.0
1519.469321	1612.25
1519.986245	1604.5
1520.503114	1605.75
1521.019929	1594.75
1521.536689	1621.0
1522.053395	1595.25
1522.570046	1594.0
1523.086642	1585.0
1523.603184	1627.25
1524.119671	1606.75
1524.636103	1604.5
1525.152481	1611.25
1525.668805	1594.75
1526.185073	1645.5
1526.701288	1608.0
1527.217447	1622.75
1527.733552	1580.0
1528.249603	1621.75
1528.765599	1594.75
1529.28154	1614.0
1529.797427	1605.25
1530.313259	1599.5
1530.829037	1601.5
1531.34476	1609.75
1531.860429	1636.25
1532.376043	1613.5
1532.891602	1607.0
1533.407107	1603.0
1533.922558	1601.75
1534.437954	1618.5
1534.953295	1612.5
1535.468582	1603.25
1535.983815	1605.0
1536.498993	1607.0
1537.014116	1618.75
1537.529185	1622.0
1538.044199	1611.75
1538.559159	1618.5
1539.074064	1613.0
1539.588915	1605.25
1540.103712	1619.0
1540.618454	1594.0
1541.133141	1613.25
1541.647774	1615.75
1542.162353	1608.0
1542.676877	1602.75
1543.191346	1611.75
1543.705761	1620.25
1544.220122	1640.75
1544.734428	1602.25
1545.24868	1626.0
1545.762877	1605.75
1546.27702	1620.5
1546.791109	1618.5
1547.305143	1619.0
1547.819122	1603.5
1548.333047	1618.0
1548.846918	1626.5
1549.360734	1614.75
1549.874496	1648.0
1550.388204	1609.75
1550.901857	1603.0
1551.415455	1612.75
1551.929	1632.25
1552.442489	1616.75
1552.955925	1605.25
1553.469306	1627.5
1553.982632	1618.5
1554.495905	1616.0
1555.009123	1607.0
1555.522286	1620.5
1556.035395	1616.25
1556.54845	1623.75
1557.06145	1608.5
1557.574396	1603.0
1558.087288	1625.25
1558.600125	1640.5
1559.112908	1630.5
1559.625637	1622.75
1560.138311	1627.75
1560.650931	1606.5
1561.163497	1626.5
1561.676008	1615.0
1562.188465	1610.25
1562.700867	1616.25
1563.213216	1621.5
1563.725509	1627.25
1564.237749	1617.25
1564.749934	1617.25
1565.262065	1622.0
1565.774142	1636.0
1566.286164	1601.25
1566.798132	1628.0
1567.310046	1620.5
1567.821906	1615.75
1568.333711	1622.75
1568.845462	1619.0
1569.357158	1627.0
1569.868801	1610.0
1570.380389	1630.25
1570.891922	1608.25
1571.403402	1635.5
1571.914827	1617.75
1572.426198	1649.25
1572.937515	1622.0
1573.448777	1637.5
1573.959985	1626.75
1574.471139	1634.75
1574.982239	1631.75
1575.493285	1632.25
1576.004276	1625.75
1576.515213	1634.75
1577.026096	1643.5
1577.536924	1607.75
1578.047698	1613.5
1578.558419	1609.0
1579.069084	1620.0
1579.579696	1626.5
1580.090254	1621.25
1580.600757	1628.75
1581.111206	1606.5
1581.621601	1623.75
1582.131941	1627.0
1582.642228	1626.5
1583.15246	1609.75
1583.662638	1633.25
1584.172762	1607.25
1584.682832	1638.75
1585.192847	1621.0
1585.702809	1600.25
1586.212716	1627.75
1586.722569	1626.0
1587.232368	1638.0
1587.742113	1616.5
1588.251803	1625.5
1588.76144	1608.0
1589.271022	1621.75
1589.78055	1623.25
1590.290024	1622.25
1590.799444	1624.75
1591.30881	1612.5
1591.818121	1634.25
1592.327379	1604.0
