 1.042414189E+03	 4.323533203E+04
 1.042980685E+03	 4.331966797E+04
 1.043547124E+03	 4.338500000E+04
 1.044113505E+03	 4.351800000E+04
 1.044679828E+03	 4.339733203E+04
 1.045246093E+03	 4.346500000E+04
 1.045812300E+03	 4.345733203E+04
 1.046378449E+03	 4.354166797E+04
 1.046944540E+03	 4.339466797E+04
 1.047510573E+03	 4.365866797E+04
 1.048076548E+03	 4.355500000E+04
 1.048642465E+03	 4.368033203E+04
 1.049208325E+03	 4.370166797E+04
 1.049774126E+03	 4.375333203E+04
 1.050339869E+03	 4.372166797E+04
 1.050905555E+03	 4.379066797E+04
 1.051471183E+03	 4.373166797E+04
 1.052036752E+03	 4.377400000E+04
 1.052602264E+03	 4.366933203E+04
 1.053167718E+03	 4.397700000E+04
 1.053733114E+03	 4.383933203E+04
 1.054298452E+03	 4.405200000E+04
 1.054863733E+03	 4.383700000E+04
 1.055428955E+03	 4.399833203E+04
 1.055994119E+03	 4.392833203E+04
 1.056559226E+03	 4.409433203E+04
 1.057124275E+03	 4.404266797E+04
 1.057689266E+03	 4.414600000E+04
 1.058254199E+03	 4.413600000E+04
 1.058819074E+03	 4.414666797E+04
 1.059383891E+03	 4.415800000E+04
 1.059948650E+03	 4.424700000E+04
 1.060513352E+03	 4.415966797E+04
 1.061077996E+03	 4.426866797E+04
 1.061642582E+03	 4.420200000E+04
 1.062207110E+03	 4.438500000E+04
 1.062771580E+03	 4.421866797E+04
 1.063335992E+03	 4.449566797E+04
 1.063900347E+03	 4.430833203E+04
 1.064464643E+03	 4.446166797E+04
 1.065028882E+03	 4.429966797E+04
 1.065593063E+03	 4.443733203E+04
 1.066157187E+03	 4.442166797E+04
 1.066721252E+03	 4.445400000E+04
 1.067285260E+03	 4.446000000E+04
 1.067849210E+03	 4.465133203E+04
 1.068413102E+03	 4.453600000E+04
 1.068976936E+03	 4.463633203E+04
 1.069540713E+03	 4.459066797E+04
 1.070104431E+03	 4.466633203E+04
 1.070668092E+03	 4.468233203E+04
 1.071231696E+03	 4.468200000E+04
 1.071795241E+03	 4.465933203E+04
 1.072358729E+03	 4.475733203E+04
 1.072922159E+03	 4.460533203E+04
 1.073485531E+03	 4.480400000E+04
 1.074048845E+03	 4.473700000E+04
 1.074612102E+03	 4.479866797E+04
 1.075175301E+03	 4.465033203E+04
 1.075738442E+03	 4.482200000E+04
 1.076301525E+03	 4.477300000E+04
 1.076864551E+03	 4.491133203E+04
 1.077427519E+03	 4.490100000E+04
 1.077990429E+03	 4.493000000E+04
 1.078553281E+03	 4.488500000E+04
 1.079116076E+03	 4.496500000E+04
 1.079678813E+03	 4.491100000E+04
 1.080241492E+03	 4.514133203E+04
 1.080804114E+03	 4.503766797E+04
 1.081366678E+03	 4.503566797E+04
 1.081929184E+03	 4.508566797E+04
 1.082491633E+03	 4.511800000E+04
 1.083054024E+03	 4.507033203E+04
 1.083616357E+03	 4.517633203E+04
 1.084178632E+03	 4.509666797E+04
 1.084740850E+03	 4.519033203E+04
 1.085303010E+03	 4.507500000E+04
 1.085865113E+03	 4.530766797E+04
 1.086427158E+03	 4.512933203E+04
 1.086989145E+03	 4.520700000E+04
 1.087551074E+03	 4.528500000E+04
 1.088112946E+03	 4.537433203E+04
 1.088674760E+03	 4.521566797E+04
 1.089236517E+03	 4.535000000E+04
 1.089798216E+03	 4.530866797E+04
 1.090359857E+03	 4.539400000E+04
 1.090921440E+03	 4.529533203E+04
 1.091482966E+03	 4.543800000E+04
 1.092044435E+03	 4.520633203E+04
 1.092605845E+03	 4.543433203E+04
 1.093167199E+03	 4.538366797E+04
 1.093728494E+03	 4.541600000E+04
 1.094289732E+03	 4.540133203E+04
 1.094850912E+03	 4.536333203E+04
 1.095412035E+03	 4.544833203E+04
 1.095973100E+03	 4.549200000E+04
 1.096534107E+03	 4.537666797E+04
 1.097095057E+03	 4.562166797E+04
 1.097655950E+03	 4.550566797E+04
 1.098216784E+03	 4.565566797E+04
 1.098777561E+03	 4.563333203E+04
 1.099338281E+03	 4.557633203E+04
 1.099898943E+03	 4.566800000E+04
 1.100459547E+03	 4.568233203E+04
 1.101020094E+03	 4.559166797E+04
 1.101580584E+03	 4.561800000E+04
 1.102141015E+03	 4.570900000E+04
 1.102701389E+03	 4.576900000E+04
 1.103261706E+03	 4.567466797E+04
 1.103821965E+03	 4.569433203E+04
 1.104382167E+03	 4.573066797E+04
 1.104942311E+03	 4.577966797E+04
 1.105502397E+03	 4.566000000E+04
 1.106062426E+03	 4.588600000E+04
 1.106622398E+03	 4.570200000E+04
 1.107182312E+03	 4.588166797E+04
 1.107742168E+03	 4.564100000E+04
 1.108301967E+03	 4.580066797E+04
 1.108861708E+03	 4.563600000E+04
 1.109421392E+03	 4.578266797E+04
 1.109981019E+03	 4.577900000E+04
 1.110540587E+03	 4.601666797E+04
 1.111100099E+03	 4.583133203E+04
 1.111659553E+03	 4.605733203E+04
 1.112218949E+03	 4.583733203E+04
 1.112778288E+03	 4.592366797E+04
 1.113337570E+03	 4.600233203E+04
 1.113896794E+03	 4.607133203E+04
 1.114455960E+03	 4.599200000E+04
 1.115015069E+03	 4.609300000E+04
 1.115574121E+03	 4.606000000E+04
 1.116133115E+03	 4.616800000E+04
 1.116692052E+03	 4.604033203E+04
 1.117250931E+03	 4.619966797E+04
 1.117809753E+03	 4.604033203E+04
 1.118368517E+03	 4.617700000E+04
 1.118927224E+03	 4.625266797E+04
 1.119485873E+03	 4.623000000E+04
 1.120044465E+03	 4.622833203E+04
 1.120603000E+03	 4.639566797E+04
 1.121161477E+03	 4.628800000E+04
 1.121719897E+03	 4.638833203E+04
 1.122278259E+03	 4.623733203E+04
 1.122836564E+03	 4.645833203E+04
 1.123394812E+03	 4.649100000E+04
 1.123953002E+03	 4.650966797E+04
 1.124511135E+03	 4.648100000E+04
 1.125069210E+03	 4.655466797E+04
 1.125627228E+03	 4.638600000E+04
 1.126185189E+03	 4.651066797E+04
 1.126743092E+03	 4.653200000E+04
 1.127300938E+03	 4.662000000E+04
 1.127858726E+03	 4.664400000E+04
 1.128416457E+03	 4.670900000E+04
 1.128974131E+03	 4.663533203E+04
 1.129531748E+03	 4.673666797E+04
 1.130089307E+03	 4.667200000E+04
 1.130646808E+03	 4.682466797E+04
 1.131204252E+03	 4.681133203E+04
 1.131761639E+03	 4.693366797E+04
 1.132318969E+03	 4.690266797E+04
 1.132876241E+03	 4.700966797E+04
 1.133433456E+03	 4.690333203E+04
 1.133990614E+03	 4.702533203E+04
 1.134547714E+03	 4.701233203E+04
 1.135104757E+03	 4.710900000E+04
 1.135661743E+03	 4.705700000E+04
 1.136218671E+03	 4.713866797E+04
 1.136775542E+03	 4.715800000E+04
 1.137332356E+03	 4.715166797E+04
 1.137889112E+03	 4.723833203E+04
 1.138445811E+03	 4.729966797E+04
 1.139002453E+03	 4.708933203E+04
 1.139559037E+03	 4.733566797E+04
 1.140115565E+03	 4.726633203E+04
 1.140672035E+03	 4.726000000E+04
 1.141228447E+03	 4.729000000E+04
 1.141784803E+03	 4.752366797E+04
 1.142341101E+03	 4.746966797E+04
 1.142897342E+03	 4.755233203E+04
 1.143453525E+03	 4.753900000E+04
 1.144009651E+03	 4.775766797E+04
 1.144565721E+03	 4.758266797E+04
 1.145121732E+03	 4.764666797E+04
 1.145677687E+03	 4.758400000E+04
 1.146233584E+03	 4.770833203E+04
 1.146789424E+03	 4.779366797E+04
 1.147345207E+03	 4.786500000E+04
 1.147900933E+03	 4.780400000E+04
 1.148456601E+03	 4.788333203E+04
 1.149012212E+03	 4.786433203E+04
 1.149567766E+03	 4.794600000E+04
 1.150123263E+03	 4.790166797E+04
 1.150678702E+03	 4.831933203E+04
 1.151234085E+03	 4.818900000E+04
 1.151789410E+03	 4.829600000E+04
 1.152344678E+03	 4.818700000E+04
 1.152899888E+03	 4.834700000E+04
 1.153455042E+03	 4.809333203E+04
 1.154010138E+03	 4.831666797E+04
 1.154565177E+03	 4.823100000E+04
 1.155120159E+03	 4.835566797E+04
 1.155675084E+03	 4.837500000E+04
 1.156229951E+03	 4.849033203E+04
 1.156784762E+03	 4.844233203E+04
 1.157339515E+03	 4.851400000E+04
 1.157894211E+03	 4.845300000E+04
 1.158448850E+03	 4.859266797E+04
 1.159003432E+03	 4.856000000E+04
 1.159557956E+03	 4.854066797E+04
 1.160112424E+03	 4.852333203E+04
 1.160666834E+03	 4.859566797E+04
 1.161221187E+03	 4.864466797E+04
 1.161775483E+03	 4.865700000E+04
 1.162329722E+03	 4.880400000E+04
 1.162883904E+03	 4.879500000E+04
 1.163438029E+03	 4.884700000E+04
 1.163992096E+03	 4.882933203E+04
 1.164546107E+03	 4.878400000E+04
 1.165100060E+03	 4.893433203E+04
 1.165653956E+03	 4.893466797E+04
 1.166207795E+03	 4.895933203E+04
 1.166761577E+03	 4.903233203E+04
 1.167315302E+03	 4.902133203E+04
 1.167868970E+03	 4.907700000E+04
 1.168422581E+03	 4.907933203E+04
 1.168976134E+03	 4.901833203E+04
 1.169529631E+03	 4.917833203E+04
 1.170083070E+03	 4.924266797E+04
 1.170636453E+03	 4.912066797E+04
 1.171189778E+03	 4.919600000E+04
 1.171743046E+03	 4.918866797E+04
 1.172296257E+03	 4.931233203E+04
 1.172849412E+03	 4.917533203E+04
 1.173402509E+03	 4.944300000E+04
 1.173955549E+03	 4.932433203E+04
 1.174508532E+03	 4.937566797E+04
 1.175061458E+03	 4.939666797E+04
 1.175614327E+03	 4.951833203E+04
 1.176167138E+03	 4.946566797E+04
 1.176719893E+03	 4.956466797E+04
 1.177272591E+03	 4.954366797E+04
 1.177825232E+03	 4.977866797E+04
 1.178377816E+03	 4.965266797E+04
 1.178930342E+03	 4.978633203E+04
 1.179482812E+03	 4.958733203E+04
 1.180035225E+03	 4.958600000E+04
 1.180587581E+03	 4.958533203E+04
 1.181139879E+03	 4.970900000E+04
 1.181692121E+03	 4.965600000E+04
 1.182244306E+03	 4.982966797E+04
 1.182796434E+03	 4.983500000E+04
 1.183348504E+03	 4.980433203E+04
 1.183900518E+03	 4.987100000E+04
 1.184452475E+03	 4.985200000E+04
 1.185004375E+03	 4.987800000E+04
 1.185556218E+03	 4.992166797E+04
 1.186108004E+03	 5.006200000E+04
 1.186659733E+03	 4.998000000E+04
 1.187211405E+03	 5.017033203E+04
 1.187763020E+03	 5.003266797E+04
 1.188314578E+03	 5.004466797E+04
 1.188866079E+03	 4.999666797E+04
 1.189417523E+03	 5.012566797E+04
 1.189968910E+03	 5.007600000E+04
 1.190520241E+03	 5.019400000E+04
 1.191071514E+03	 5.003900000E+04
 1.191622731E+03	 5.038100000E+04
 1.192173890E+03	 5.024000000E+04
 1.192724993E+03	 5.036700000E+04
 1.193276039E+03	 5.025600000E+04
 1.193827027E+03	 5.023133203E+04
 1.194377959E+03	 5.026500000E+04
 1.194928834E+03	 5.044233203E+04
 1.195479653E+03	 5.037866797E+04
 1.196030414E+03	 5.044900000E+04
 1.196581118E+03	 5.061333203E+04
 1.197131766E+03	 5.048566797E+04
 1.197682356E+03	 5.043133203E+04
 1.198232890E+03	 5.053200000E+04
 1.198783367E+03	 5.054933203E+04
 1.199333786E+03	 5.064733203E+04
 1.199884150E+03	 5.057566797E+04
 1.200434456E+03	 5.061600000E+04
 1.200984705E+03	 5.064400000E+04
 1.201534898E+03	 5.064500000E+04
 1.202085033E+03	 5.065966797E+04
 1.202635112E+03	 5.061233203E+04
 1.203185134E+03	 5.070600000E+04
 1.203735099E+03	 5.068166797E+04
 1.204285007E+03	 5.079166797E+04
 1.204834859E+03	 5.078133203E+04
 1.205384653E+03	 5.076000000E+04
 1.205934391E+03	 5.078866797E+04
 1.206484072E+03	 5.087500000E+04
 1.207033696E+03	 5.077000000E+04
 1.207583263E+03	 5.077333203E+04
 1.208132774E+03	 5.086100000E+04
 1.208682228E+03	 5.092433203E+04
 1.209231624E+03	 5.094233203E+04
 1.209780965E+03	 5.100333203E+04
 1.210330248E+03	 5.104466797E+04
 1.210879474E+03	 5.094566797E+04
 1.211428644E+03	 5.096433203E+04
 1.211977757E+03	 5.110666797E+04
 1.212526813E+03	 5.107300000E+04
 1.213075813E+03	 5.108033203E+04
 1.213624755E+03	 5.110333203E+04
 1.214173641E+03	 5.103766797E+04
 1.214722470E+03	 5.110633203E+04
 1.215271242E+03	 5.118500000E+04
 1.215819958E+03	 5.127900000E+04
 1.216368617E+03	 5.125433203E+04
 1.216917219E+03	 5.142066797E+04
 1.217465764E+03	 5.130566797E+04
 1.218014253E+03	 5.144300000E+04
 1.218562685E+03	 5.123500000E+04
 1.219111060E+03	 5.134733203E+04
 1.219659378E+03	 5.131866797E+04
 1.220207640E+03	 5.146966797E+04
 1.220755845E+03	 5.138333203E+04
 1.221303993E+03	 5.163566797E+04
 1.221852085E+03	 5.148066797E+04
 1.222400119E+03	 5.159500000E+04
 1.222948097E+03	 5.159933203E+04
 1.223496019E+03	 5.172466797E+04
 1.224043883E+03	 5.162466797E+04
 1.224591691E+03	 5.176966797E+04
 1.225139443E+03	 5.150000000E+04
 1.225687137E+03	 5.173500000E+04
 1.226234775E+03	 5.166800000E+04
 1.226782357E+03	 5.172866797E+04
 1.227329881E+03	 5.185333203E+04
 1.227877349E+03	 5.197700000E+04
 1.228424760E+03	 5.166400000E+04
 1.228972115E+03	 5.195866797E+04
 1.229519413E+03	 5.192800000E+04
 1.230066654E+03	 5.197133203E+04
 1.230613839E+03	 5.203400000E+04
 1.231160967E+03	 5.202800000E+04
 1.231708038E+03	 5.201866797E+04
 1.232255053E+03	 5.193833203E+04
 1.232802011E+03	 5.214900000E+04
 1.233348912E+03	 5.212533203E+04
 1.233895757E+03	 5.222666797E+04
 1.234442545E+03	 5.213966797E+04
 1.234989277E+03	 5.234133203E+04
 1.235535951E+03	 5.216566797E+04
 1.236082570E+03	 5.225433203E+04
 1.236629131E+03	 5.205266797E+04
 1.237175636E+03	 5.232866797E+04
 1.237722085E+03	 5.220000000E+04
 1.238268477E+03	 5.244033203E+04
 1.238814812E+03	 5.232666797E+04
 1.239361091E+03	 5.257333203E+04
 1.239907313E+03	 5.226700000E+04
 1.240453478E+03	 5.267833203E+04
 1.240999587E+03	 5.245433203E+04
 1.241545640E+03	 5.255666797E+04
 1.242091636E+03	 5.243100000E+04
 1.242637575E+03	 5.243333203E+04
 1.243183457E+03	 5.253666797E+04
 1.243729284E+03	 5.264200000E+04
 1.244275053E+03	 5.253366797E+04
 1.244820766E+03	 5.270933203E+04
 1.245366423E+03	 5.276966797E+04
 1.245912022E+03	 5.284500000E+04
 1.246457566E+03	 5.268033203E+04
 1.247003053E+03	 5.283266797E+04
 1.247548483E+03	 5.287033203E+04
 1.248093857E+03	 5.274166797E+04
 1.248639174E+03	 5.288966797E+04
 1.249184435E+03	 5.294933203E+04
 1.249729639E+03	 5.291133203E+04
 1.250274787E+03	 5.287933203E+04
 1.250819878E+03	 5.302033203E+04
 1.251364912E+03	 5.296766797E+04
 1.251909891E+03	 5.317300000E+04
 1.252454812E+03	 5.311733203E+04
 1.252999677E+03	 5.307666797E+04
 1.253544486E+03	 5.298666797E+04
 1.254089238E+03	 5.324333203E+04
 1.254633934E+03	 5.299833203E+04
 1.255178573E+03	 5.327133203E+04
 1.255723156E+03	 5.311333203E+04
 1.256267682E+03	 5.328733203E+04
 1.256812152E+03	 5.312900000E+04
 1.257356565E+03	 5.347566797E+04
 1.257900922E+03	 5.324366797E+04
 1.258445223E+03	 5.344666797E+04
 1.258989467E+03	 5.334766797E+04
 1.259533654E+03	 5.353333203E+04
 1.260077785E+03	 5.347366797E+04
 1.260621860E+03	 5.342266797E+04
 1.261165878E+03	 5.344500000E+04
 1.261709840E+03	 5.355766797E+04
 1.262253745E+03	 5.338600000E+04
 1.262797594E+03	 5.358833203E+04
 1.263341386E+03	 5.346666797E+04
 1.263885123E+03	 5.364900000E+04
 1.264428802E+03	 5.359666797E+04
 1.264972425E+03	 5.369333203E+04
 1.265515992E+03	 5.361933203E+04
 1.266059503E+03	 5.371266797E+04
 1.266602957E+03	 5.368333203E+04
 1.267146354E+03	 5.378666797E+04
 1.267689696E+03	 5.379500000E+04
 1.268232980E+03	 5.369633203E+04
 1.268776209E+03	 5.388466797E+04
 1.269319381E+03	 5.376600000E+04
 1.269862497E+03	 5.389300000E+04
 1.270405556E+03	 5.392733203E+04
 1.270948559E+03	 5.395366797E+04
 1.271491506E+03	 5.376366797E+04
 1.272034396E+03	 5.395233203E+04
 1.272577230E+03	 5.398033203E+04
 1.273120007E+03	 5.401300000E+04
 1.273662728E+03	 5.393433203E+04
 1.274205393E+03	 5.404533203E+04
 1.274748002E+03	 5.392133203E+04
 1.275290554E+03	 5.413400000E+04
 1.275833050E+03	 5.402800000E+04
 1.276375489E+03	 5.411033203E+04
 1.276917872E+03	 5.410700000E+04
 1.277460199E+03	 5.427600000E+04
 1.278002470E+03	 5.430766797E+04
 1.278544684E+03	 5.425400000E+04
 1.279086842E+03	 5.435766797E+04
 1.279628943E+03	 5.428633203E+04
 1.280170989E+03	 5.427300000E+04
 1.280712978E+03	 5.425200000E+04
 1.281254910E+03	 5.436900000E+04
 1.281796787E+03	 5.434533203E+04
 1.282338607E+03	 5.448466797E+04
 1.282880371E+03	 5.434433203E+04
 1.283422078E+03	 5.452266797E+04
 1.283963729E+03	 5.428366797E+04
 1.284505324E+03	 5.455433203E+04
 1.285046863E+03	 5.457666797E+04
 1.285588345E+03	 5.480833203E+04
 1.286129772E+03	 5.471900000E+04
 1.286671142E+03	 5.458866797E+04
 1.287212455E+03	 5.454000000E+04
 1.287753713E+03	 5.458300000E+04
 1.288294914E+03	 5.454933203E+04
 1.288836059E+03	 5.470233203E+04
 1.289377147E+03	 5.465300000E+04
 1.289918180E+03	 5.484666797E+04
 1.290459156E+03	 5.476966797E+04
 1.291000076E+03	 5.494066797E+04
 1.291540940E+03	 5.461800000E+04
 1.292081747E+03	 5.488433203E+04
 1.292622499E+03	 5.475400000E+04
 1.293163194E+03	 5.482366797E+04
 1.293703833E+03	 5.473533203E+04
 1.294244415E+03	 5.484966797E+04
 1.294784942E+03	 5.483533203E+04
 1.295325412E+03	 5.491000000E+04
 1.295865826E+03	 5.494966797E+04
 1.296406184E+03	 5.495033203E+04
 1.296946486E+03	 5.510500000E+04
 1.297486731E+03	 5.507833203E+04
 1.298026921E+03	 5.499833203E+04
 1.298567054E+03	 5.495333203E+04
 1.299107131E+03	 5.510800000E+04
 1.299647152E+03	 5.494933203E+04
 1.300187116E+03	 5.512200000E+04
 1.300727025E+03	 5.491433203E+04
 1.301266877E+03	 5.523866797E+04
 1.301806673E+03	 5.494966797E+04
 1.302346413E+03	 5.536833203E+04
 1.302886097E+03	 5.504700000E+04
 1.303425725E+03	 5.540900000E+04
 1.303965297E+03	 5.513600000E+04
 1.304504812E+03	 5.543566797E+04
 1.305044272E+03	 5.528866797E+04
 1.305583675E+03	 5.540366797E+04
 1.306123022E+03	 5.541266797E+04
 1.306662313E+03	 5.537866797E+04
 1.307201548E+03	 5.525433203E+04
 1.307740727E+03	 5.553500000E+04
 1.308279849E+03	 5.539033203E+04
 1.308818916E+03	 5.553366797E+04
 1.309357926E+03	 5.557766797E+04
 1.309896881E+03	 5.545766797E+04
 1.310435779E+03	 5.565233203E+04
 1.310974621E+03	 5.539833203E+04
 1.311513407E+03	 5.559733203E+04
 1.312052137E+03	 5.550866797E+04
 1.312590811E+03	 5.559366797E+04
 1.313129429E+03	 5.548766797E+04
 1.313667991E+03	 5.582366797E+04
 1.314206497E+03	 5.543266797E+04
 1.314744946E+03	 5.561666797E+04
 1.315283340E+03	 5.548200000E+04
 1.315821678E+03	 5.574466797E+04
 1.316359959E+03	 5.565300000E+04
 1.316898184E+03	 5.588066797E+04
 1.317436354E+03	 5.579566797E+04
 1.317974467E+03	 5.586133203E+04
 1.318512525E+03	 5.571066797E+04
 1.319050526E+03	 5.574766797E+04
 1.319588471E+03	 5.592333203E+04
 1.320126360E+03	 5.571300000E+04
 1.320664194E+03	 5.595066797E+04
 1.321201971E+03	 5.589766797E+04
 1.321739692E+03	 5.598266797E+04
 1.322277357E+03	 5.577666797E+04
 1.322814967E+03	 5.607833203E+04
 1.323352520E+03	 5.588600000E+04
 1.323890017E+03	 5.613133203E+04
 1.324427458E+03	 5.601066797E+04
 1.324964843E+03	 5.600366797E+04
 1.325502173E+03	 5.586733203E+04
 1.326039446E+03	 5.619666797E+04
 1.326576663E+03	 5.612833203E+04
 1.327113824E+03	 5.630366797E+04
 1.327650930E+03	 5.615233203E+04
 1.328187979E+03	 5.630600000E+04
 1.328724972E+03	 5.597266797E+04
 1.329261910E+03	 5.620733203E+04
 1.329798791E+03	 5.621766797E+04
 1.330335617E+03	 5.640200000E+04
 1.330872386E+03	 5.639900000E+04
 1.331409100E+03	 5.621500000E+04
 1.331945758E+03	 5.633800000E+04
 1.332482360E+03	 5.631133203E+04
 1.333018905E+03	 5.635333203E+04
 1.333555395E+03	 5.632366797E+04
 1.334091829E+03	 5.644800000E+04
 1.334628207E+03	 5.622133203E+04
 1.335164529E+03	 5.643100000E+04
 1.335700796E+03	 5.639300000E+04
 1.336237006E+03	 5.657000000E+04
 1.336773160E+03	 5.636166797E+04
 1.337309259E+03	 5.670433203E+04
 1.337845301E+03	 5.666133203E+04
 1.338381288E+03	 5.664966797E+04
 1.338917219E+03	 5.648133203E+04
 1.339453094E+03	 5.651766797E+04
 1.339988913E+03	 5.656900000E+04
 1.340524676E+03	 5.686700000E+04
 1.341060383E+03	 5.658233203E+04
 1.341596034E+03	 5.656833203E+04
 1.342131630E+03	 5.652700000E+04
 1.342667170E+03	 5.669566797E+04
 1.343202653E+03	 5.663966797E+04
 1.343738081E+03	 5.670600000E+04
 1.344273453E+03	 5.685400000E+04
 1.344808770E+03	 5.676533203E+04
 1.345344030E+03	 5.684733203E+04
 1.345879235E+03	 5.666800000E+04
 1.346414383E+03	 5.700566797E+04
 1.346949476E+03	 5.671366797E+04
 1.347484513E+03	 5.699100000E+04
 1.348019494E+03	 5.680966797E+04
 1.348554420E+03	 5.702300000E+04
 1.349089289E+03	 5.677200000E+04
 1.349624103E+03	 5.706933203E+04
 1.350158861E+03	 5.692366797E+04
 1.350693563E+03	 5.721200000E+04
 1.351228209E+03	 5.701500000E+04
 1.351762800E+03	 5.712733203E+04
 1.352297334E+03	 5.713533203E+04
 1.352831813E+03	 5.715866797E+04
 1.353366236E+03	 5.707866797E+04
 1.353900604E+03	 5.708466797E+04
 1.354434915E+03	 5.724400000E+04
 1.354969171E+03	 5.710166797E+04
 1.355503371E+03	 5.717666797E+04
 1.356037515E+03	 5.713533203E+04
 1.356571604E+03	 5.728366797E+04
 1.357105636E+03	 5.718166797E+04
 1.357639613E+03	 5.741933203E+04
 1.358173535E+03	 5.707600000E+04
 1.358707400E+03	 5.749433203E+04
 1.359241210E+03	 5.717266797E+04
 1.359774964E+03	 5.750900000E+04
 1.360308662E+03	 5.721333203E+04
 1.360842304E+03	 5.733800000E+04
 1.361375891E+03	 5.714133203E+04
 1.361909422E+03	 5.749066797E+04
 1.362442897E+03	 5.741400000E+04
 1.362976317E+03	 5.742300000E+04
 1.363509680E+03	 5.745033203E+04
 1.364042989E+03	 5.748533203E+04
 1.364576241E+03	 5.748933203E+04
 1.365109438E+03	 5.731833203E+04
 1.365642579E+03	 5.757300000E+04
 1.366175664E+03	 5.748133203E+04
 1.366708693E+03	 5.762866797E+04
 1.367241667E+03	 5.735700000E+04
 1.367774585E+03	 5.771000000E+04
 1.368307448E+03	 5.752933203E+04
 1.368840255E+03	 5.773400000E+04
 1.369373006E+03	 5.749533203E+04
 1.369905701E+03	 5.778500000E+04
 1.370438341E+03	 5.765800000E+04
 1.370970925E+03	 5.781866797E+04
 1.371503454E+03	 5.763133203E+04
 1.372035926E+03	 5.778200000E+04
 1.372568344E+03	 5.757066797E+04
 1.373100705E+03	 5.774466797E+04
 1.373633011E+03	 5.782133203E+04
 1.374165261E+03	 5.784633203E+04
 1.374697456E+03	 5.796266797E+04
 1.375229595E+03	 5.775433203E+04
 1.375761678E+03	 5.794100000E+04
 1.376293705E+03	 5.772266797E+04
 1.376825677E+03	 5.806833203E+04
 1.377357594E+03	 5.778433203E+04
 1.377889455E+03	 5.800933203E+04
 1.378421260E+03	 5.791133203E+04
 1.378953009E+03	 5.796866797E+04
 1.379484703E+03	 5.791166797E+04
 1.380016342E+03	 5.811866797E+04
 1.380547924E+03	 5.816466797E+04
 1.381079452E+03	 5.809933203E+04
 1.381610923E+03	 5.805800000E+04
 1.382142339E+03	 5.789200000E+04
 1.382673699E+03	 5.822533203E+04
 1.383205004E+03	 5.814800000E+04
 1.383736253E+03	 5.829000000E+04
 1.384267447E+03	 5.811166797E+04
 1.384798585E+03	 5.833500000E+04
 1.385329668E+03	 5.797766797E+04
 1.385860695E+03	 5.845466797E+04
 1.386391666E+03	 5.801200000E+04
 1.386922582E+03	 5.850400000E+04
 1.387453442E+03	 5.834800000E+04
 1.387984247E+03	 5.852466797E+04
 1.388514996E+03	 5.837600000E+04
 1.389045690E+03	 5.875833203E+04
 1.389576328E+03	 5.841133203E+04
 1.390106910E+03	 5.841033203E+04
 1.390637437E+03	 5.843066797E+04
 1.391167909E+03	 5.834366797E+04
 1.391698325E+03	 5.850933203E+04
 1.392228685E+03	 5.838166797E+04
 1.392758990E+03	 5.855566797E+04
 1.393289240E+03	 5.846466797E+04
 1.393819434E+03	 5.859633203E+04
 1.394349572E+03	 5.830166797E+04
 1.394879655E+03	 5.864100000E+04
 1.395409683E+03	 5.847666797E+04
 1.395939655E+03	 5.859800000E+04
 1.396469571E+03	 5.854966797E+04
 1.396999432E+03	 5.868366797E+04
 1.397529237E+03	 5.856933203E+04
 1.398058987E+03	 5.863966797E+04
 1.398588682E+03	 5.867533203E+04
 1.399118321E+03	 5.866000000E+04
 1.399647905E+03	 5.870533203E+04
 1.400177433E+03	 5.861933203E+04
 1.400706906E+03	 5.868533203E+04
 1.401236323E+03	 5.866900000E+04
 1.401765685E+03	 5.868300000E+04
 1.402294991E+03	 5.864266797E+04
 1.402824242E+03	 5.881700000E+04
 1.403353437E+03	 5.863966797E+04
 1.403882577E+03	 5.880666797E+04
 1.404411662E+03	 5.868400000E+04
 1.404940691E+03	 5.880466797E+04
 1.405469665E+03	 5.873233203E+04
 1.405998583E+03	 5.873800000E+04
 1.406527446E+03	 5.879500000E+04
 1.407056253E+03	 5.885200000E+04
 1.407585005E+03	 5.881133203E+04
 1.408113702E+03	 5.884333203E+04
 1.408642343E+03	 5.882466797E+04
 1.409170929E+03	 5.880100000E+04
 1.409699460E+03	 5.888633203E+04
 1.410227935E+03	 5.889833203E+04
 1.410756354E+03	 5.888466797E+04
 1.411284719E+03	 5.880333203E+04
 1.411813028E+03	 5.887233203E+04
 1.412341281E+03	 5.882000000E+04
 1.412869479E+03	 5.892866797E+04
 1.413397622E+03	 5.883066797E+04
 1.413925710E+03	 5.892100000E+04
 1.414453742E+03	 5.895233203E+04
 1.414981718E+03	 5.889666797E+04
 1.415509640E+03	 5.890766797E+04
 1.416037506E+03	 5.894466797E+04
 1.416565316E+03	 5.882666797E+04
 1.417093072E+03	 5.892700000E+04
 1.417620772E+03	 5.905066797E+04
 1.418148416E+03	 5.893266797E+04
 1.418676005E+03	 5.899733203E+04
 1.419203539E+03	 5.888700000E+04
 1.419731018E+03	 5.900566797E+04
 1.420258441E+03	 5.901366797E+04
 1.420785809E+03	 5.907666797E+04
 1.421313122E+03	 5.911100000E+04
 1.421840379E+03	 5.907733203E+04
 1.422367582E+03	 5.896966797E+04
 1.422894728E+03	 5.903500000E+04
 1.423421820E+03	 5.899166797E+04
 1.423948856E+03	 5.912300000E+04
 1.424475837E+03	 5.904500000E+04
 1.425002762E+03	 5.902166797E+04
 1.425529633E+03	 5.914433203E+04
 1.426056448E+03	 5.901766797E+04
 1.426583207E+03	 5.904800000E+04
 1.427109912E+03	 5.913900000E+04
 1.427636561E+03	 5.907233203E+04
 1.428163155E+03	 5.910400000E+04
 1.428689694E+03	 5.907166797E+04
 1.429216177E+03	 5.905900000E+04
 1.429742605E+03	 5.918300000E+04
 1.430268978E+03	 5.899300000E+04
 1.430795296E+03	 5.914500000E+04
 1.431321558E+03	 5.919666797E+04
 1.431847765E+03	 5.918733203E+04
 1.432373917E+03	 5.912300000E+04
 1.432900014E+03	 5.916000000E+04
 1.433426056E+03	 5.914000000E+04
 1.433952042E+03	 5.920866797E+04
 1.434477973E+03	 5.916033203E+04
 1.435003849E+03	 5.907633203E+04
 1.435529669E+03	 5.910100000E+04
 1.436055435E+03	 5.912233203E+04
 1.436581145E+03	 5.916333203E+04
 1.437106800E+03	 5.912366797E+04
 1.437632399E+03	 5.925833203E+04
 1.438157944E+03	 5.917133203E+04
 1.438683433E+03	 5.919833203E+04
 1.439208868E+03	 5.911166797E+04
 1.439734247E+03	 5.921333203E+04
 1.440259570E+03	 5.915200000E+04
 1.440784839E+03	 5.916600000E+04
 1.441310053E+03	 5.920133203E+04
 1.441835211E+03	 5.925800000E+04
 1.442360314E+03	 5.919366797E+04
 1.442885362E+03	 5.920533203E+04
 1.443410355E+03	 5.918366797E+04
 1.443935292E+03	 5.921233203E+04
 1.444460175E+03	 5.920666797E+04
 1.444985002E+03	 5.927133203E+04
 1.445509774E+03	 5.919466797E+04
 1.446034491E+03	 5.919500000E+04
 1.446559153E+03	 5.925933203E+04
 1.447083760E+03	 5.915100000E+04
 1.447608312E+03	 5.932366797E+04
 1.448132808E+03	 5.922733203E+04
 1.448657250E+03	 5.926700000E+04
 1.449181636E+03	 5.918700000E+04
 1.449705967E+03	 5.930200000E+04
 1.450230243E+03	 5.929700000E+04
 1.450754464E+03	 5.929766797E+04
 1.451278630E+03	 5.932766797E+04
 1.451802741E+03	 5.927866797E+04
 1.452326797E+03	 5.929233203E+04
 1.452850797E+03	 5.930066797E+04
 1.453374743E+03	 5.924833203E+04
 1.453898633E+03	 5.920633203E+04
 1.454422468E+03	 5.928133203E+04
 1.454946249E+03	 5.929366797E+04
 1.455469974E+03	 5.938800000E+04
 1.455993644E+03	 5.939200000E+04
 1.456517259E+03	 5.939600000E+04
 1.457040819E+03	 5.928100000E+04
 1.457564324E+03	 5.936300000E+04
 1.458087773E+03	 5.933666797E+04
 1.458611168E+03	 5.935300000E+04
 1.459134508E+03	 5.933033203E+04
 1.459657793E+03	 5.939766797E+04
 1.460181022E+03	 5.927433203E+04
 1.460704197E+03	 5.930300000E+04
 1.461227316E+03	 5.939333203E+04
 1.461750381E+03	 5.935433203E+04
 1.462273390E+03	 5.942100000E+04
 1.462796345E+03	 5.933233203E+04
 1.463319244E+03	 5.946333203E+04
 1.463842089E+03	 5.938433203E+04
 1.464364878E+03	 5.938533203E+04
 1.464887613E+03	 5.941100000E+04
 1.465410292E+03	 5.937633203E+04
 1.465932916E+03	 5.942766797E+04
 1.466455486E+03	 5.935766797E+04
 1.466978000E+03	 5.931333203E+04
 1.467500460E+03	 5.939633203E+04
 1.468022864E+03	 5.943866797E+04
 1.468545214E+03	 5.933666797E+04
 1.469067508E+03	 5.940200000E+04
 1.469589748E+03	 5.933766797E+04
 1.470111932E+03	 5.947666797E+04
 1.470634062E+03	 5.927400000E+04
 1.471156136E+03	 5.936933203E+04
 1.471678156E+03	 5.938366797E+04
 1.472200120E+03	 5.937800000E+04
 1.472722030E+03	 5.947900000E+04
 1.473243885E+03	 5.942933203E+04
 1.473765685E+03	 5.946433203E+04
 1.474287430E+03	 5.935733203E+04
 1.474809120E+03	 5.951266797E+04
 1.475330755E+03	 5.940666797E+04
 1.475852335E+03	 5.934933203E+04
 1.476373860E+03	 5.939800000E+04
 1.476895330E+03	 5.937100000E+04
 1.477416745E+03	 5.942566797E+04
 1.477938106E+03	 5.941766797E+04
 1.478459411E+03	 5.945100000E+04
 1.478980662E+03	 5.934366797E+04
 1.479501857E+03	 5.944133203E+04
 1.480022998E+03	 5.935166797E+04
 1.480544084E+03	 5.948333203E+04
 1.481065115E+03	 5.946233203E+04
 1.481586091E+03	 5.939900000E+04
 1.482107012E+03	 5.944133203E+04
 1.482627878E+03	 5.946233203E+04
 1.483148690E+03	 5.943066797E+04
 1.483669446E+03	 5.942200000E+04
 1.484190148E+03	 5.938566797E+04
 1.484710794E+03	 5.937433203E+04
 1.485231386E+03	 5.948366797E+04
 1.485751923E+03	 5.937700000E+04
 1.486272406E+03	 5.940766797E+04
 1.486792833E+03	 5.940566797E+04
 1.487313205E+03	 5.944000000E+04
 1.487833523E+03	 5.943733203E+04
 1.488353786E+03	 5.941800000E+04
 1.488873994E+03	 5.933566797E+04
 1.489394147E+03	 5.943800000E+04
 1.489914245E+03	 5.948000000E+04
 1.490434288E+03	 5.945100000E+04
 1.490954277E+03	 5.952133203E+04
 1.491474211E+03	 5.940700000E+04
 1.491994090E+03	 5.942333203E+04
 1.492513914E+03	 5.945166797E+04
 1.493033683E+03	 5.950600000E+04
 1.493553398E+03	 5.937933203E+04
 1.494073057E+03	 5.942266797E+04
 1.494592662E+03	 5.940833203E+04
 1.495112212E+03	 5.934533203E+04
 1.495631708E+03	 5.946300000E+04
 1.496151148E+03	 5.939400000E+04
 1.496670534E+03	 5.945100000E+04
 1.497189865E+03	 5.940666797E+04
 1.497709141E+03	 5.944200000E+04
 1.498228362E+03	 5.946333203E+04
 1.498747529E+03	 5.953366797E+04
 1.499266641E+03	 5.954500000E+04
 1.499785698E+03	 5.950400000E+04
 1.500304700E+03	 5.947333203E+04
 1.500823648E+03	 5.941733203E+04
 1.501342540E+03	 5.954533203E+04
 1.501861379E+03	 5.951933203E+04
 1.502380162E+03	 5.952100000E+04
 1.502898890E+03	 5.946500000E+04
 1.503417564E+03	 5.957166797E+04
 1.503936183E+03	 5.950966797E+04
 1.504454748E+03	 5.949433203E+04
 1.504973257E+03	 5.953400000E+04
 1.505491712E+03	 5.955200000E+04
 1.506010112E+03	 5.956800000E+04
 1.506528458E+03	 5.941700000E+04
 1.507046748E+03	 5.951800000E+04
 1.507564984E+03	 5.951200000E+04
 1.508083166E+03	 5.955200000E+04
 1.508601292E+03	 5.950766797E+04
 1.509119364E+03	 5.958133203E+04
 1.509637381E+03	 5.954733203E+04
 1.510155344E+03	 5.961066797E+04
 1.510673252E+03	 5.952733203E+04
 1.511191105E+03	 5.954066797E+04
 1.511708903E+03	 5.947733203E+04
 1.512226647E+03	 5.950800000E+04
 1.512744336E+03	 5.959333203E+04
 1.513261971E+03	 5.946766797E+04
 1.513779550E+03	 5.961066797E+04
 1.514297076E+03	 5.951266797E+04
 1.514814546E+03	 5.967066797E+04
 1.515331962E+03	 5.953133203E+04
 1.515849323E+03	 5.957966797E+04
 1.516366629E+03	 5.962366797E+04
 1.516883881E+03	 5.970933203E+04
 1.517401078E+03	 5.951733203E+04
 1.517918221E+03	 5.962533203E+04
 1.518435309E+03	 5.964600000E+04
 1.518952342E+03	 5.959066797E+04
 1.519469321E+03	 5.959300000E+04
 1.519986245E+03	 5.965300000E+04
 1.520503114E+03	 5.969566797E+04
 1.521019929E+03	 5.952866797E+04
 1.521536689E+03	 5.966733203E+04
 1.522053395E+03	 5.958633203E+04
 1.522570046E+03	 5.973033203E+04
 1.523086642E+03	 5.967033203E+04
 1.523603184E+03	 5.968700000E+04
 1.524119671E+03	 5.961033203E+04
 1.524636103E+03	 5.970700000E+04
 1.525152481E+03	 5.967300000E+04
 1.525668805E+03	 5.957700000E+04
 1.526185073E+03	 5.971466797E+04
 1.526701288E+03	 5.962366797E+04
 1.527217447E+03	 5.976500000E+04
 1.527733552E+03	 5.963733203E+04
 1.528249603E+03	 5.973633203E+04
 1.528765599E+03	 5.972300000E+04
 1.529281540E+03	 5.972066797E+04
 1.529797427E+03	 5.970200000E+04
 1.530313259E+03	 5.967300000E+04
 1.530829037E+03	 5.974233203E+04
 1.531344760E+03	 5.965466797E+04
 1.531860429E+03	 5.978700000E+04
 1.532376043E+03	 5.972533203E+04
 1.532891602E+03	 5.979566797E+04
 1.533407107E+03	 5.970166797E+04
 1.533922558E+03	 5.975466797E+04
 1.534437954E+03	 5.974066797E+04
 1.534953295E+03	 5.977000000E+04
 1.535468582E+03	 5.975600000E+04
 1.535983815E+03	 5.976833203E+04
 1.536498993E+03	 5.975666797E+04
 1.537014116E+03	 5.966200000E+04
 1.537529185E+03	 5.983166797E+04
 1.538044199E+03	 5.967933203E+04
 1.538559159E+03	 5.985333203E+04
 1.539074064E+03	 5.975266797E+04
 1.539588915E+03	 5.992966797E+04
 1.540103712E+03	 5.978766797E+04
 1.540618454E+03	 5.974600000E+04
 1.541133141E+03	 5.980133203E+04
 1.541647774E+03	 5.978866797E+04
 1.542162353E+03	 5.988033203E+04
 1.542676877E+03	 5.974366797E+04
 1.543191346E+03	 5.987333203E+04
 1.543705761E+03	 5.981400000E+04
 1.544220122E+03	 5.989333203E+04
 1.544734428E+03	 5.973866797E+04
 1.545248680E+03	 5.993766797E+04
 1.545762877E+03	 5.973200000E+04
 1.546277020E+03	 5.982733203E+04
 1.546791109E+03	 5.990466797E+04
 1.547305143E+03	 5.984000000E+04
 1.547819122E+03	 5.996500000E+04
 1.548333047E+03	 5.981800000E+04
 1.548846918E+03	 5.998033203E+04
 1.549360734E+03	 5.986166797E+04
 1.549874496E+03	 5.999566797E+04
 1.550388204E+03	 5.983333203E+04
 1.550901857E+03	 5.994200000E+04
 1.551415455E+03	 5.979366797E+04
 1.551929000E+03	 5.992133203E+04
 1.552442489E+03	 5.988766797E+04
 1.552955925E+03	 5.980400000E+04
 1.553469306E+03	 5.999633203E+04
 1.553982632E+03	 5.992400000E+04
 1.554495905E+03	 6.010566797E+04
 1.555009123E+03	 5.978966797E+04
 1.555522286E+03	 5.999733203E+04
 1.556035395E+03	 5.982900000E+04
 1.556548450E+03	 5.999133203E+04
 1.557061450E+03	 5.986066797E+04
 1.557574396E+03	 5.990400000E+04
 1.558087288E+03	 5.986300000E+04
 1.558600125E+03	 5.992600000E+04
 1.559112908E+03	 6.005433203E+04
 1.559625637E+03	 5.979900000E+04
 1.560138311E+03	 6.004600000E+04
 1.560650931E+03	 5.980900000E+04
 1.561163497E+03	 6.000400000E+04
 1.561676008E+03	 5.992533203E+04
 1.562188465E+03	 6.005566797E+04
 1.562700867E+03	 5.982033203E+04
 1.563213216E+03	 5.994033203E+04
 1.563725509E+03	 6.008700000E+04
 1.564237749E+03	 5.993466797E+04
 1.564749934E+03	 6.003766797E+04
 1.565262065E+03	 5.991366797E+04
 1.565774142E+03	 6.002566797E+04
 1.566286164E+03	 5.981833203E+04
 1.566798132E+03	 6.004766797E+04
 1.567310046E+03	 5.990100000E+04
 1.567821906E+03	 6.003733203E+04
 1.568333711E+03	 5.989933203E+04
 1.568845462E+03	 5.994366797E+04
 1.569357158E+03	 6.004666797E+04
 1.569868801E+03	 5.988833203E+04
 1.570380389E+03	 6.005366797E+04
 1.570891922E+03	 5.999133203E+04
 1.571403402E+03	 6.016700000E+04
 1.571914827E+03	 5.986266797E+04
 1.572426198E+03	 6.008800000E+04
 1.572937515E+03	 5.994433203E+04
 1.573448777E+03	 6.005366797E+04
 1.573959985E+03	 6.002966797E+04
 1.574471139E+03	 6.001066797E+04
 1.574982239E+03	 6.000133203E+04
 1.575493285E+03	 5.989866797E+04
 1.576004276E+03	 6.015300000E+04
 1.576515213E+03	 5.987700000E+04
 1.577026096E+03	 6.004366797E+04
 1.577536924E+03	 5.992700000E+04
 1.578047698E+03	 6.005266797E+04
 1.578558419E+03	 5.988266797E+04
 1.579069084E+03	 5.993933203E+04
 1.579579696E+03	 6.004266797E+04
 1.580090254E+03	 5.995533203E+04
 1.580600757E+03	 6.004133203E+04
 1.581111206E+03	 5.985333203E+04
 1.581621601E+03	 5.993100000E+04
 1.582131941E+03	 5.993333203E+04
 1.582642228E+03	 6.004266797E+04
 1.583152460E+03	 5.986666797E+04
 1.583662638E+03	 6.001866797E+04
 1.584172762E+03	 5.994000000E+04
 1.584682832E+03	 6.001466797E+04
 1.585192847E+03	 6.004233203E+04
 1.585702809E+03	 6.000666797E+04
 1.586212716E+03	 6.013466797E+04
 1.586722569E+03	 5.991566797E+04
 1.587232368E+03	 6.018100000E+04
 1.587742113E+03	 5.990666797E+04
 1.588251803E+03	 6.011500000E+04
 1.588761440E+03	 5.987366797E+04
 1.589271022E+03	 5.999866797E+04
 1.589780550E+03	 5.995400000E+04
 1.590290024E+03	 5.992866797E+04
 1.590799444E+03	 6.007100000E+04
 1.591308810E+03	 5.988233203E+04
 1.591818121E+03	 6.011133203E+04
 1.592327379E+03	 5.990666797E+04
