1042.414189	713.2000122
1042.980685	717.5999756
1043.547124	716.7999878
1044.113505	709.2000122
1044.679828	711.2000122
1045.246093	710.7999878
1045.8123	711.5999756
1046.378449	706.2000122
1046.94454	708.2000122
1047.510573	711.2000122
1048.076548	704.5999756
1048.642465	709.7999878
1049.208325	708.5999756
1049.774126	705.0
1050.339869	706.2000122
1050.905555	705.4000244
1051.471183	702.5999756
1052.036752	704.2000122
1052.602264	707.0
1053.167718	703.7999878
1053.733114	702.0
1054.298452	705.0
1054.863733	703.5999756
1055.428955	700.0
1055.994119	703.0
1056.559226	701.7999878
1057.124275	696.7999878
1057.689266	701.2000122
1058.254199	700.7999878
1058.819074	701.2000122
1059.383891	704.2000122
1059.94865	700.5999756
1060.513352	699.2000122
1061.077996	701.5999756
1061.642582	699.4000244
1062.20711	701.2000122
1062.77158	699.7999878
1063.335992	700.2000122
1063.900347	700.2000122
1064.464643	702.7999878
1065.028882	702.2000122
1065.593063	697.5999756
1066.157187	700.2000122
1066.721252	700.2000122
1067.28526	702.7999878
1067.84921	702.0
1068.413102	698.5999756
1068.976936	703.7999878
1069.540713	700.0
1070.104431	704.7999878
1070.668092	696.5999756
1071.231696	699.7999878
1071.795241	697.2000122
1072.358729	701.2000122
1072.922159	699.7999878
1073.485531	696.7999878
1074.048845	699.4000244
1074.612102	694.7999878
1075.175301	700.2000122
1075.738442	700.4000244
1076.301525	701.7999878
1076.864551	701.2000122
1077.427519	701.7999878
1077.990429	700.4000244
1078.553281	698.0
1079.116076	698.7999878
1079.678813	698.2000122
1080.241492	697.5999756
1080.804114	696.4000244
1081.366678	700.4000244
1081.929184	700.2000122
1082.491633	705.0
1083.054024	696.7999878
1083.616357	698.4000244
1084.178632	701.0
1084.74085	704.2000122
1085.30301	703.2000122
1085.865113	704.2000122
1086.427158	697.5999756
1086.989145	702.5999756
1087.551074	700.7999878
1088.112946	700.4000244
1088.67476	703.4000244
1089.236517	700.0
1089.798216	701.5999756
1090.359857	702.0
1090.92144	704.7999878
1093.167199	701.2000122
1093.728494	703.4000244
1094.289732	703.5999756
1094.850912	703.7999878
1095.412035	706.5999756
1095.9731	698.4000244
1096.534107	699.2000122
1097.095057	706.0
1097.65595	700.0
1098.216784	701.4000244
1098.777561	702.7999878
1099.338281	701.2000122
1099.898943	702.2000122
1100.459547	701.5999756
1101.020094	698.2000122
1101.580584	701.2000122
1102.141015	696.7999878
1102.701389	698.7999878
1103.261706	699.7999878
1103.821965	701.5999756
1104.382167	701.4000244
1104.942311	699.5999756
1105.502397	698.2000122
1106.062426	697.7999878
1106.622398	696.7999878
1107.182312	704.5999756
1107.742168	699.7999878
1108.301967	701.4000244
1108.861708	701.5999756
1109.421392	702.2000122
1109.981019	701.4000244
1110.540587	698.2000122
1111.100099	704.4000244
1111.659553	697.7999878
1112.218949	700.2000122
1112.778288	704.2000122
1113.33757	697.7999878
1113.896794	704.0
1114.45596	698.4000244
1115.015069	700.0
1115.574121	699.4000244
1116.133115	700.0
1116.692052	701.0
1117.250931	701.4000244
1117.809753	697.4000244
1118.368517	699.5999756
1118.927224	698.4000244
1119.485873	703.5999756
1120.044465	700.4000244
1120.603	701.7999878
1121.161477	699.4000244
1121.719897	702.2000122
1122.278259	699.2000122
1122.836564	700.2000122
1123.394812	700.7999878
1123.953002	702.0
1124.511135	700.0
1125.06921	702.4000244
1125.627228	699.5999756
1126.185189	700.7999878
1126.743092	696.4000244
1127.300938	700.4000244
1127.858726	701.5999756
1128.416457	699.4000244
1128.974131	700.0
1129.531748	700.0
1130.089307	703.7999878
1130.646808	701.0
1131.204252	702.4000244
1131.761639	698.7999878
1132.318969	696.5999756
1132.876241	703.5999756
1133.433456	702.7999878
1133.990614	700.5999756
1134.547714	701.2000122
1135.104757	702.0
1135.661743	700.5999756
1136.218671	701.2000122
1136.775542	697.5999756
1137.332356	696.7999878
1137.889112	702.4000244
1138.445811	700.5999756
1139.002453	700.2000122
1139.559037	701.2000122
1140.115565	699.7999878
1140.672035	702.7999878
1141.228447	705.4000244
1141.784803	701.7999878
1142.341101	699.0
1142.897342	702.4000244
1143.453525	699.4000244
1144.009651	701.4000244
1144.565721	701.7999878
1145.121732	704.2000122
1145.677687	696.7999878
1146.233584	701.7999878
1146.789424	702.7999878
1147.345207	701.5999756
1147.900933	697.2000122
1148.456601	703.7999878
1149.012212	698.0
1149.567766	699.4000244
1150.123263	702.7999878
1150.678702	699.4000244
1151.234085	703.2000122
1151.78941	702.0
1152.344678	704.0
1152.899888	704.4000244
1153.455042	699.4000244
1154.010138	702.4000244
1154.565177	706.2000122
1155.120159	700.4000244
1155.675084	700.7999878
1156.229951	703.5999756
1156.784762	702.0
1157.339515	697.7999878
1157.894211	702.4000244
1158.44885	700.4000244
1159.003432	700.0
1159.557956	701.7999878
1160.112424	701.4000244
1160.666834	702.7999878
1161.221187	702.7999878
1161.775483	700.5999756
1162.329722	703.4000244
1162.883904	703.5999756
1163.438029	701.7999878
1163.992096	706.7999878
1164.546107	702.2000122
1165.10006	703.4000244
1165.653956	701.7999878
1166.207795	705.5999756
1166.761577	703.2000122
1167.315302	704.0
1167.86897	706.4000244
1168.422581	702.0
1168.976134	702.5999756
1169.529631	701.0
1170.08307	700.5999756
1170.636453	703.2000122
1171.189778	702.4000244
1171.743046	704.2000122
1172.296257	706.7999878
1172.849412	699.0
1173.402509	700.2000122
1173.955549	705.4000244
1174.508532	700.2000122
1175.061458	700.7999878
1175.614327	699.4000244
1176.167138	703.2000122
1176.719893	702.0
1177.272591	700.0
1177.825232	705.5999756
1178.377816	702.5999756
1178.930342	703.7999878
1179.482812	704.0
1180.035225	702.4000244
1180.587581	701.0
1181.139879	704.4000244
1181.692121	705.4000244
1182.244306	705.2000122
1182.796434	702.0
1183.348504	707.0
1183.900518	708.0
1184.452475	701.2000122
1185.004375	700.4000244
1185.556218	704.4000244
1186.108004	703.2000122
1186.659733	703.5999756
1187.211405	702.0
1187.76302	703.5999756
1188.314578	706.7999878
1188.866079	702.0
1189.417523	706.5999756
1189.96891	702.0
1190.520241	707.0
1191.071514	703.0
1191.622731	706.7999878
1192.17389	698.7999878
1192.724993	703.5999756
1193.276039	724.4000244
1193.827027	704.7999878
1194.377959	704.7999878
1194.928834	705.2000122
1195.479653	705.2000122
1196.030414	706.7999878
1196.581118	704.5999756
1197.131766	705.0
1197.682356	705.7999878
1198.23289	708.7999878
1198.783367	705.4000244
1199.333786	705.4000244
1199.88415	708.2000122
1200.434456	707.2000122
1200.984705	705.5999756
1201.534898	706.7999878
1202.085033	707.2000122
1202.635112	706.2000122
1203.185134	704.7999878
1203.735099	703.0
1204.285007	707.0
1204.834859	704.7999878
1205.384653	707.2000122
1205.934391	708.0
1206.484072	707.5999756
1207.033696	706.0
1207.583263	707.2000122
1208.132774	707.5999756
1208.682228	705.7999878
1209.231624	706.2000122
1209.780965	704.5999756
1210.330248	707.4000244
1210.879474	708.2000122
1211.428644	706.0
1211.977757	708.0
1212.526813	708.0
1213.075813	708.4000244
1213.624755	705.4000244
1214.173641	704.7999878
1214.72247	708.5999756
1215.271242	706.7999878
1215.819958	710.5999756
1216.368617	707.0
1216.917219	707.0
1217.465764	705.4000244
1218.014253	709.5999756
1218.562685	708.2000122
1219.11106	705.0
1219.659378	706.4000244
1220.20764	709.2000122
1220.755845	705.7999878
1221.303993	708.7999878
1221.852085	711.5999756
1222.400119	710.2000122
1222.948097	706.5999756
1223.496019	708.5999756
1224.043883	708.5999756
1224.591691	712.4000244
1225.139443	707.0
1225.687137	711.7999878
1226.234775	707.0
1226.782357	711.7999878
1227.329881	707.2000122
1227.877349	707.0
1228.42476	707.4000244
1228.972115	710.4000244
1229.519413	713.4000244
1230.066654	711.4000244
1230.613839	709.0
1231.160967	710.5999756
1231.708038	711.0
1232.255053	708.0
1232.802011	709.0
1233.348912	711.4000244
1233.895757	706.2000122
1234.442545	705.7999878
1234.989277	712.5999756
1235.535951	705.4000244
1236.08257	709.0
1236.629131	708.0
1237.175636	711.0
1237.722085	711.2000122
1238.268477	712.0
1238.814812	712.4000244
1239.361091	707.5999756
1239.907313	705.5999756
1240.453478	714.4000244
1240.999587	706.5999756
1241.54564	712.2000122
1242.091636	713.2000122
1242.637575	711.5999756
1243.183457	714.4000244
1243.729284	709.7999878
1244.275053	711.7999878
1244.820766	713.2000122
1245.366423	711.7999878
1245.912022	712.0
1246.457566	710.7999878
1247.003053	717.7999878
1247.548483	712.0
1248.093857	712.4000244
1248.639174	713.0
1249.184435	713.7999878
1249.729639	711.5999756
1250.274787	711.5999756
1250.819878	709.0
1251.364912	713.0
1251.909891	712.2000122
1252.454812	714.0
1252.999677	710.0
1253.544486	714.2000122
1254.089238	714.7999878
1254.633934	717.7999878
1255.178573	716.4000244
1255.723156	717.4000244
1256.267682	713.2000122
1256.812152	716.4000244
1257.356565	718.2000122
1257.900922	723.5999756
1258.445223	722.7999878
1258.989467	721.0
1259.533654	727.2000122
1260.077785	739.7999878
1260.62186	729.7999878
1261.165878	733.4000244
1261.70984	740.5999756
1262.253745	745.5999756
1262.797594	748.4000244
1263.341386	745.5999756
1263.885123	744.4000244
1264.428802	740.5999756
1264.972425	733.4000244
1265.515992	731.2000122
1266.059503	726.5999756
1266.602957	729.0
1267.146354	724.2000122
1267.689696	726.2000122
1268.23298	717.0
1268.776209	718.2000122
1269.319381	717.5999756
1269.862497	721.5999756
1270.405556	726.7999878
1270.948559	721.4000244
1271.491506	722.0
1272.034396	722.4000244
1272.57723	725.0
1273.120007	726.7999878
1273.662728	722.0
1274.205393	722.7999878
1274.748002	726.4000244
1275.290554	728.2000122
1275.83305	729.7999878
1276.375489	727.0
1276.917872	727.5999756
1277.460199	731.0
1278.00247	738.7999878
1278.544684	736.0
1279.086842	741.2000122
1279.628943	744.4000244
1280.170989	763.7999878
1280.712978	792.2000122
1281.25491	849.0
1281.796787	984.4000244
1282.338607	1207.400024
1282.880371	1353.199951
1283.422078	1264.400024
1283.963729	1039.800049
1284.505324	888.2000122
1285.046863	813.5999756
1285.588345	772.0
1286.129772	756.0
1286.671142	751.2000122
1287.212455	743.4000244
1287.753713	730.0
1288.294914	734.4000244
1288.836059	730.0
1289.377147	726.0
1289.91818	724.0
1290.459156	727.5999756
1291.000076	725.5999756
1291.54094	730.2000122
1292.081747	727.2000122
1292.622499	726.5999756
1293.163194	723.5999756
1293.703833	724.7999878
1294.244415	723.7999878
1294.784942	723.5999756
1295.325412	719.5999756
1295.865826	717.7999878
1296.406184	720.5999756
1296.946486	723.2000122
1297.486731	722.5999756
1298.026921	722.2000122
1298.567054	721.4000244
1299.107131	724.2000122
1299.647152	719.5999756
1300.187116	718.0
1300.727025	720.7999878
1301.266877	717.2000122
1301.806673	722.2000122
1302.346413	724.5999756
1302.886097	715.0
1303.425725	723.2000122
1303.965297	713.7999878
1304.504812	721.5999756
1305.044272	722.2000122
1305.583675	722.2000122
1306.123022	721.4000244
1306.662313	719.5999756
1307.201548	720.0
1307.740727	714.7999878
1308.279849	715.2000122
1308.818916	722.4000244
1309.357926	716.2000122
1309.896881	718.0
1310.435779	721.2000122
1310.974621	717.2000122
1311.513407	717.7999878
1312.052137	715.2000122
1312.590811	720.0
1313.129429	719.7999878
1313.667991	717.7999878
1314.206497	715.5999756
1314.744946	718.5999756
1315.28334	713.0
1315.821678	721.0
1316.359959	714.2000122
1316.898184	716.4000244
1317.436354	717.2000122
1317.974467	716.2000122
1318.512525	717.2000122
1319.050526	718.0
1319.588471	721.4000244
1320.12636	721.4000244
1320.664194	717.0
1321.201971	718.7999878
1321.739692	715.5999756
1322.277357	718.2000122
1322.814967	713.7999878
1323.35252	717.5999756
1323.890017	715.5999756
1324.427458	716.5999756
1324.964843	715.7999878
1325.502173	718.2000122
1326.039446	717.2000122
1326.576663	720.2000122
1327.113824	716.2000122
1327.65093	716.0
1328.187979	720.0
1328.724972	712.5999756
1329.26191	718.0
1329.798791	717.5999756
1330.335617	713.5999756
1330.872386	720.2000122
1331.4091	716.7999878
1331.945758	715.5999756
1332.48236	717.7999878
1333.018905	717.0
1333.555395	717.7999878
1334.091829	720.0
1334.628207	715.4000244
1335.164529	721.7999878
1335.700796	718.4000244
1336.237006	714.4000244
1336.77316	717.5999756
1337.309259	717.7999878
1337.845301	717.7999878
1338.381288	715.7999878
1338.917219	718.5999756
1339.453094	723.0
1339.988913	720.2000122
1340.524676	716.7999878
1341.060383	718.4000244
1341.596034	716.7999878
1342.13163	714.0
1342.66717	717.2000122
1343.202653	717.5999756
1343.738081	720.2000122
1344.273453	715.0
1344.80877	718.7999878
1345.34403	713.7999878
1345.879235	719.0
1346.414383	718.7999878
1346.949476	715.2000122
1347.484513	720.5999756
1348.019494	722.7999878
1348.55442	718.5999756
1349.089289	716.2000122
1349.624103	718.0
1350.158861	719.0
1350.693563	718.2000122
1351.228209	719.0
1351.7628	719.5999756
1352.297334	722.2000122
1352.831813	723.0
1353.366236	721.2000122
1353.900604	714.5999756
1354.434915	722.2000122
1354.969171	722.7999878
1355.503371	718.2000122
1356.037515	718.4000244
1356.571604	721.5999756
1357.105636	721.4000244
1357.639613	714.5999756
1358.173535	717.7999878
1358.7074	717.7999878
1359.24121	723.0
1359.774964	722.4000244
1360.308662	720.7999878
1360.842304	721.0
1361.375891	719.7999878
1361.909422	721.7999878
1362.442897	726.0
1362.976317	720.2000122
1363.50968	723.5999756
1364.042989	723.0
1364.576241	722.2000122
1365.109438	724.0
1365.642579	725.5999756
1366.175664	721.0
1366.708693	721.5999756
1367.241667	728.7999878
1367.774585	727.2000122
1368.307448	725.4000244
1368.840255	733.0
1369.373006	740.2000122
1369.905701	750.7999878
1370.438341	737.5999756
1370.970925	732.0
1371.503454	731.0
1372.035926	724.5999756
1372.568344	732.0
1373.100705	725.0
1373.633011	727.7999878
1374.165261	731.4000244
1374.697456	729.7999878
1375.229595	731.5999756
1375.761678	726.7999878
1376.293705	727.4000244
1376.825677	732.4000244
1377.357594	735.0
1377.889455	729.0
1378.42126	732.5999756
1378.953009	727.7999878
1379.484703	736.4000244
1380.016342	736.7999878
1380.547924	739.0
1381.079452	736.4000244
1381.610923	747.0
1382.142339	749.0
1382.673699	748.5999756
1383.205004	758.4000244
1383.736253	772.4000244
1384.267447	781.0
1384.798585	805.4000244
1385.329668	848.0
1385.860695	936.0
1386.391666	1149.400024
1386.922582	1614.599976
1387.453442	2028.0
1387.984247	1729.0
1388.514996	1216.199951
1389.04569	956.0
1389.576328	846.7999878
1390.10691	804.0
1390.637437	785.0
1391.167909	764.4000244
1391.698325	755.4000244
1392.228685	751.4000244
1392.75899	751.5999756
1393.28924	744.2000122
1393.819434	743.2000122
1394.349572	739.2000122
1394.879655	739.5999756
1395.409683	732.7999878
1395.939655	740.5999756
1396.469571	734.2000122
1396.999432	742.4000244
1397.529237	730.5999756
1398.058987	733.7999878
1398.588682	731.0
1399.118321	735.0
1399.647905	734.0
1400.177433	732.5999756
1400.706906	729.0
1401.236323	730.2000122
1401.765685	734.2000122
1402.294991	733.4000244
1402.824242	736.2000122
1403.353437	737.0
1403.882577	740.0
1404.411662	732.2000122
1404.940691	741.0
1405.469665	742.4000244
1405.998583	743.4000244
1406.527446	741.4000244
1407.056253	754.7999878
1407.585005	762.2000122
1408.113702	767.0
1408.642343	779.2000122
1409.170929	772.4000244
1409.69946	771.5999756
1410.227935	761.5999756
1410.756354	753.4000244
1411.284719	742.7999878
1411.813028	743.2000122
1412.341281	734.4000244
1412.869479	731.5999756
1413.397622	726.7999878
1413.92571	731.5999756
1414.453742	732.4000244
1414.981718	729.5999756
1415.50964	732.4000244
1416.037506	722.7999878
1416.565316	723.2000122
1417.093072	722.5999756
1417.620772	727.0
1418.148416	725.0
1418.676005	724.2000122
1419.203539	726.2000122
1419.731018	724.2000122
1420.258441	724.7999878
1420.785809	726.0
1421.313122	720.0
1421.840379	723.0
1422.367582	721.4000244
1422.894728	722.7999878
1423.42182	726.7999878
1423.948856	724.5999756
1424.475837	720.2000122
1425.002762	721.5999756
1425.529633	725.4000244
1426.056448	729.4000244
1426.583207	724.2000122
1427.109912	723.2000122
1427.636561	720.5999756
1428.163155	722.0
1428.689694	721.2000122
1429.216177	723.5999756
1429.742605	726.7999878
1430.268978	722.2000122
1430.795296	722.2000122
1431.321558	725.2000122
1431.847765	715.7999878
1432.373917	719.2000122
1432.900014	724.0
1433.426056	721.2000122
1433.952042	722.2000122
1434.477973	721.4000244
1435.003849	721.0
1435.529669	725.5999756
1436.055435	722.4000244
1436.581145	723.0
1437.1068	717.2000122
1437.632399	720.4000244
1438.157944	718.7999878
1438.683433	722.7999878
1439.208868	719.2000122
1439.734247	721.5999756
1440.25957	720.5999756
1440.784839	720.7999878
1441.310053	721.2000122
1441.835211	715.7999878
1442.360314	722.4000244
1442.885362	718.2000122
1443.410355	723.4000244
1443.935292	722.7999878
1444.460175	720.5999756
1444.985002	720.4000244
1445.509774	719.4000244
1446.034491	721.7999878
1446.559153	716.2000122
1447.08376	725.2000122
1447.608312	722.2000122
1448.132808	723.0
1448.65725	722.7999878
1449.181636	724.0
1449.705967	720.2000122
1450.230243	720.7999878
1450.754464	722.7999878
1451.27863	722.4000244
1451.802741	724.5999756
1452.326797	720.5999756
1452.850797	716.0
1453.374743	720.5999756
1453.898633	717.2000122
1454.422468	722.7999878
1454.946249	722.0
1455.469974	719.5999756
1455.993644	722.2000122
1456.517259	721.0
1457.040819	720.0
1457.564324	722.7999878
1458.087773	719.7999878
1458.611168	719.2000122
1459.134508	715.7999878
1459.657793	721.2000122
1460.181022	717.5999756
1460.704197	720.2000122
1461.227316	720.5999756
1461.750381	716.4000244
1462.27339	723.4000244
1462.796345	725.7999878
1463.319244	733.2000122
1463.842089	717.7999878
1464.364878	719.0
1464.887613	723.7999878
1465.410292	717.2000122
1465.932916	721.5999756
1466.455486	722.2000122
1466.978	724.2000122
1467.50046	717.7999878
1468.022864	720.7999878
1468.545214	722.2000122
1469.067508	721.2000122
1469.589748	719.7999878
1470.111932	717.2000122
1470.634062	721.4000244
1471.156136	720.2000122
1471.678156	721.5999756
1472.20012	719.7999878
1472.72203	720.2000122
1473.243885	719.7999878
1473.765685	723.4000244
1474.28743	715.5999756
1474.80912	723.4000244
1475.330755	721.7999878
1475.852335	722.0
1476.37386	717.5999756
1476.89533	719.5999756
1477.416745	724.2000122
1477.938106	716.7999878
1478.459411	722.5999756
1478.980662	722.4000244
1479.501857	715.7999878
1480.022998	719.5999756
1480.544084	720.7999878
1481.065115	719.2000122
1481.586091	723.7999878
1482.107012	715.2000122
1482.627878	718.2000122
1483.14869	716.0
1483.669446	720.4000244
1484.190148	720.2000122
1484.710794	721.0
1485.231386	721.4000244
1485.751923	724.0
1486.272406	717.7999878
1486.792833	720.4000244
1487.313205	722.5999756
1487.833523	724.4000244
1488.353786	719.7999878
1488.873994	718.2000122
1489.394147	724.0
1489.914245	723.7999878
1490.434288	722.4000244
1490.954277	722.7999878
1491.474211	724.0
1491.99409	724.5999756
1492.513914	719.2000122
1493.033683	723.0
1493.553398	722.4000244
1494.073057	719.0
1494.592662	722.4000244
1495.112212	721.2000122
1495.631708	722.2000122
1496.151148	722.0
1496.670534	719.0
1497.189865	721.5999756
1497.709141	724.7999878
1498.228362	722.7999878
1498.747529	721.5999756
1499.266641	719.5999756
1499.785698	725.5999756
1500.3047	719.7999878
1500.823648	724.2000122
1501.34254	721.4000244
1501.861379	721.4000244
1502.380162	724.0
1502.89889	721.7999878
1503.417564	717.2000122
1503.936183	721.5999756
1504.454748	725.7999878
1504.973257	722.0
1505.491712	718.5999756
1506.010112	722.4000244
1506.528458	724.5999756
1507.046748	717.0
1507.564984	721.4000244
1508.083166	718.4000244
1508.601292	722.4000244
1509.119364	724.2000122
1509.637381	725.4000244
1510.155344	724.7999878
1510.673252	728.0
1511.191105	723.4000244
1511.708903	722.7999878
1512.226647	719.5999756
1512.744336	721.0
1513.261971	720.0
1513.77955	724.4000244
1514.297076	721.0
1514.814546	722.0
1515.331962	719.4000244
1515.849323	722.0
1516.366629	723.7999878
1516.883881	722.5999756
1517.401078	716.2000122
1517.918221	724.4000244
1518.435309	722.4000244
1518.952342	718.4000244
1519.469321	724.4000244
1519.986245	721.5999756
1520.503114	723.4000244
1521.019929	727.2000122
1521.536689	724.7999878
1522.053395	718.7999878
1522.570046	722.2000122
1523.086642	723.0
1523.603184	724.2000122
1524.119671	720.7999878
1524.636103	719.4000244
1525.152481	725.0
1525.668805	724.4000244
1526.185073	737.2000122
1526.701288	728.0
1527.217447	724.7999878
1527.733552	723.2000122
1528.249603	725.4000244
1528.765599	720.4000244
1529.28154	723.5999756
1529.797427	726.7999878
1530.313259	719.4000244
1530.829037	724.7999878
1531.34476	722.2000122
1531.860429	727.7999878
1532.376043	725.0
1532.891602	727.0
1533.407107	725.0
1533.922558	719.5999756
1534.437954	724.7999878
1534.953295	728.0
1535.468582	722.0
1535.983815	725.2000122
1536.498993	722.5999756
1537.014116	725.7999878
1537.529185	725.5999756
1538.044199	722.7999878
1538.559159	729.2000122
1539.074064	725.2000122
1539.588915	723.4000244
1540.103712	727.2000122
1540.618454	727.5999756
1541.133141	725.0
1541.647774	720.5999756
1542.162353	723.0
1542.676877	721.5999756
1543.191346	723.2000122
1543.705761	721.7999878
1544.220122	724.2000122
1544.734428	726.0
1545.24868	731.0
1545.762877	721.0
1546.27702	726.5999756
1546.791109	721.5999756
1547.305143	723.7999878
1547.819122	726.2000122
1548.333047	725.4000244
1548.846918	724.0
1549.360734	727.7999878
1549.874496	727.4000244
1550.388204	724.0
1550.901857	727.0
1551.415455	725.2000122
1551.929	722.2000122
1552.442489	726.5999756
1552.955925	726.4000244
1553.469306	725.7999878
1553.982632	723.5999756
1554.495905	726.4000244
1555.009123	725.5999756
1555.522286	728.7999878
1556.035395	726.0
1556.54845	725.7999878
1557.06145	723.5999756
1557.574396	728.5999756
1558.087288	724.0
1558.600125	718.4000244
1559.112908	725.5999756
1559.625637	725.7999878
1560.138311	721.4000244
1560.650931	726.5999756
1561.163497	730.0
1561.676008	726.7999878
1562.188465	725.4000244
1562.700867	724.7999878
1563.213216	729.7999878
1563.725509	726.2000122
1564.237749	732.0
1564.749934	728.0
1565.262065	729.5999756
1565.774142	728.0
1566.286164	724.0
1566.798132	729.7999878
1567.310046	727.5999756
1567.821906	718.0
1568.333711	728.4000244
1568.845462	725.4000244
1569.357158	725.7999878
1569.868801	727.0
1570.380389	729.2000122
1570.891922	724.2000122
1571.403402	728.5999756
1571.914827	723.2000122
1572.426198	724.7999878
1572.937515	730.7999878
1573.448777	727.4000244
1573.959985	730.4000244
1574.471139	724.5999756
1574.982239	725.0
1575.493285	728.5999756
1576.004276	731.0
1576.515213	731.7999878
1577.026096	726.2000122
1577.536924	725.2000122
1578.047698	727.7999878
1578.558419	722.4000244
1579.069084	727.7999878
1579.579696	723.4000244
1580.090254	732.2000122
1580.600757	731.0
1581.111206	731.5999756
1581.621601	726.0
1582.131941	727.4000244
1582.642228	730.2000122
1583.15246	728.4000244
1583.662638	732.4000244
1584.172762	732.0
1584.682832	722.7999878
1585.192847	724.4000244
1585.702809	728.4000244
1586.212716	730.7999878
1586.722569	727.2000122
1587.232368	729.5999756
1587.742113	725.2000122
1588.251803	727.4000244
1588.76144	730.4000244
1589.271022	723.4000244
1589.78055	727.4000244
1590.290024	727.5999756
1590.799444	734.4000244
1591.30881	727.2000122
1591.818121	730.2000122
1592.327379	724.4000244
