1043.018714	1118.400024
1043.585098	1118.199951
1044.151424	1117.199951
1044.717692	1122.599976
1045.283903	1122.0
1045.850056	1124.800049
1046.416151	1119.0
1046.982188	1117.400024
1047.548167	1111.800049
1048.114089	1120.199951
1048.679953	1112.199951
1049.24576	1124.599976
1049.811509	1115.0
1050.3772	1122.599976
1050.942833	1107.400024
1051.508408	1108.199951
1052.073926	1118.0
1052.639387	1116.0
1053.204789	1112.199951
1053.770134	1113.199951
1054.335421	1107.800049
1054.900651	1108.599976
1055.465823	1108.400024
1056.030937	1102.0
1056.595993	1111.199951
1057.160992	1107.800049
1057.725934	1108.199951
1058.290817	1101.599976
1058.855643	1100.199951
1059.420411	1103.0
1059.985122	1096.199951
1060.549775	1102.800049
1061.114371	1095.400024
1061.678908	1101.599976
1062.243389	1101.800049
1062.807811	1107.800049
1063.372176	1104.599976
1063.936483	1110.599976
1064.500733	1089.199951
1065.064925	1109.0
1065.62906	1096.599976
1066.193137	1109.800049
1066.757156	1099.199951
1067.321118	1092.0
1067.885022	1108.800049
1068.448869	1087.800049
1069.012658	1102.400024
1069.57639	1094.400024
1070.140063	1116.199951
1070.70368	1104.0
1071.267239	1094.199951
1071.83074	1094.800049
1072.394184	1089.400024
1072.95757	1094.599976
1073.520899	1103.0
1074.08417	1099.599976
1074.647383	1099.400024
1075.21054	1091.599976
1075.773638	1101.800049
1076.336679	1095.400024
1076.899663	1099.599976
1077.462589	1095.400024
1078.025457	1101.599976
1078.588268	1093.599976
1079.151022	1108.599976
1079.713718	1092.599976
1080.276356	1093.400024
1080.838937	1091.599976
1081.401461	1091.800049
1081.963927	1090.599976
1082.526336	1094.0
1083.088687	1089.400024
1083.650981	1091.0
1084.213217	1087.199951
1084.775396	1093.199951
1085.337517	1091.400024
1085.899581	1097.199951
1086.461587	1090.599976
1087.023536	1079.400024
1087.585428	1096.199951
1088.147262	1086.400024
1088.709039	1087.199951
1089.270758	1092.400024
1089.83242	1076.199951
1090.394024	1085.0
1090.955571	1079.0
1091.517061	1088.599976
1092.078493	1082.800049
1092.639868	1083.199951
1093.201185	1090.0
1093.762445	1081.199951
1094.323648	1085.599976
1094.884793	1084.800049
1095.445881	1079.599976
1096.006911	1079.0
1096.567884	1084.400024
1097.1288	1090.400024
1097.689659	1075.0
1098.25046	1068.800049
1098.811203	1075.0
1099.37189	1085.0
1099.932518	1071.199951
1100.49309	1080.0
1101.053604	1084.400024
1101.614061	1083.800049
1102.174461	1075.599976
1102.734803	1078.800049
1103.295088	1071.400024
1103.855316	1085.800049
1104.415486	1080.199951
1104.975599	1082.400024
1105.535655	1072.0
1106.095653	1078.400024
1106.655594	1075.199951
1107.215478	1069.0
1107.775305	1075.400024
1108.335074	1063.800049
1108.894786	1063.800049
1109.45444	1059.199951
1110.014038	1064.199951
1110.573578	1067.599976
1111.133061	1062.599976
1111.692486	1068.800049
1112.251854	1062.199951
1112.811165	1074.0
1113.370419	1072.400024
1113.929616	1065.199951
1114.488755	1057.400024
1115.047837	1064.599976
1115.606862	1056.599976
1116.16583	1079.0
1116.72474	1067.800049
1117.283593	1066.199951
1117.842389	1058.400024
1118.401128	1066.400024
1118.959809	1053.0
1119.518433	1068.0
1120.077	1060.800049
1120.63551	1069.0
1121.193963	1060.599976
1121.752358	1069.199951
1122.310697	1067.599976
1122.868978	1071.199951
1123.427202	1061.199951
1123.985368	1066.0
1124.543478	1068.400024
1125.10153	1071.199951
1125.659526	1069.199951
1126.217464	1070.599976
1126.775345	1077.0
1127.333168	1061.0
1127.890935	1049.400024
1128.448644	1072.400024
1129.006297	1074.400024
1129.563892	1061.599976
1130.12143	1061.400024
1130.678911	1069.800049
1131.236335	1065.800049
1131.793701	1060.599976
1132.351011	1049.599976
1132.908263	1062.599976
1133.465458	1063.400024
1134.022597	1063.400024
1134.579678	1065.0
1135.136702	1061.400024
1135.693669	1057.199951
1136.250578	1061.599976
1136.807431	1055.0
1137.364227	1067.800049
1137.920965	1066.400024
1138.477647	1064.199951
1139.034271	1065.199951
1139.590839	1052.400024
1140.147349	1069.400024
1140.703802	1063.599976
1141.260198	1059.800049
1141.816537	1061.599976
1142.37282	1066.400024
1142.929045	1063.599976
1143.485213	1058.0
1144.041323	1062.199951
1144.597377	1064.0
1145.153374	1072.199951
1145.709314	1059.0
1146.265197	1061.599976
1146.821023	1057.800049
1147.376792	1066.199951
1147.932503	1060.0
1148.488158	1063.400024
1149.043756	1067.0
1149.599297	1065.800049
1150.154781	1084.400024
1150.710207	1099.599976
1151.265577	1083.0
1151.82089	1067.599976
1152.376146	1068.800049
1152.931345	1061.599976
1153.486487	1054.599976
1154.041572	1058.800049
1154.5966	1053.800049
1155.151571	1059.599976
1155.706485	1063.0
1156.261342	1070.400024
1156.816142	1070.199951
1157.370885	1064.199951
1157.925572	1059.599976
1158.480201	1057.599976
1159.034774	1058.800049
1159.589289	1047.800049
1160.143748	1056.800049
1160.698149	1050.400024
1161.252494	1060.400024
1161.806782	1067.0
1162.361013	1060.400024
1162.915187	1062.400024
1163.469304	1053.0
1164.023364	1047.800049
1164.577368	1049.800049
1165.131314	1044.599976
1165.685204	1055.199951
1166.239036	1056.400024
1166.792812	1059.800049
1167.346531	1056.800049
1167.900193	1049.0
1168.453798	1057.800049
1169.007347	1067.599976
1169.560838	1052.800049
1170.114273	1060.0
1170.66765	1054.199951
1171.220971	1064.599976
1171.774235	1048.800049
1172.327443	1059.0
1172.880593	1056.599976
1173.433687	1050.800049
1173.986723	1049.800049
1174.539703	1056.599976
1175.092626	1057.599976
1175.645493	1053.400024
1176.198302	1058.400024
1176.751055	1051.0
1177.303751	1050.599976
1177.85639	1053.400024
1178.408972	1050.800049
1178.961498	1054.599976
1179.513966	1059.0
1180.066378	1052.199951
1180.618733	1060.599976
1181.171032	1061.0
1181.723273	1051.599976
1182.275458	1046.0
1182.827586	1049.0
1183.379657	1057.800049
1183.931672	1049.800049
1184.48363	1042.400024
1185.035531	1060.0
1185.587375	1053.800049
1186.139162	1050.599976
1186.690893	1052.599976
1187.242567	1051.800049
1187.794184	1051.199951
1188.345745	1055.0
1188.897249	1050.0
1189.448696	1057.0
1190.000086	1046.0
1190.55142	1060.0
1191.102697	1048.800049
1191.653918	1060.599976
1192.205081	1049.400024
1192.756188	1050.0
1193.307238	1056.0
1193.858232	1060.0
1194.409169	1053.199951
1194.960049	1041.599976
1195.510872	1043.599976
1196.061639	1048.199951
1196.612349	1042.800049
1197.163003	1050.599976
1197.713599	1039.400024
1198.264139	1042.800049
1198.814623	1053.199951
1199.36505	1040.0
1199.91542	1050.800049
1200.465734	1061.400024
1201.01599	1037.400024
1201.566191	1036.199951
1202.116334	1050.800049
1202.666421	1038.400024
1203.216452	1054.800049
1203.766425	1038.0
1204.316343	1042.400024
1204.866203	1040.0
1205.416007	1044.0
1205.965754	1041.400024
1206.515445	1040.199951
1207.065079	1039.199951
1207.614657	1045.199951
1208.164177	1040.199951
1208.713642	1043.599976
1209.26305	1046.199951
1209.812401	1037.400024
1210.361695	1045.199951
1210.910933	1032.199951
1211.460115	1037.0
1212.00924	1041.199951
1212.558308	1040.0
1213.10732	1041.199951
1213.656275	1044.0
1214.205174	1034.400024
1214.754016	1043.400024
1215.302801	1028.0
1215.85153	1034.0
1216.400203	1035.0
1216.948819	1033.199951
1217.497378	1045.199951
1218.045881	1044.800049
1218.594327	1041.199951
1219.142717	1037.800049
1219.691051	1032.400024
1220.239327	1033.800049
1220.787548	1045.800049
1221.335712	1040.400024
1221.883819	1031.800049
1222.43187	1033.800049
1222.979864	1035.800049
1223.527802	1035.199951
1224.075683	1040.400024
1224.623508	1028.0
1225.171277	1034.0
1225.718989	1033.199951
1226.266644	1028.199951
1226.814243	1039.400024
1227.361786	1027.599976
1227.909272	1034.800049
1228.456702	1040.0
1229.004075	1028.400024
1229.551392	1030.599976
1230.098652	1028.599976
1230.645856	1024.400024
1231.193003	1039.0
1231.740094	1034.400024
1232.287129	1036.400024
1232.834107	1025.400024
1233.381029	1026.400024
1233.927894	1029.0
1234.474703	1025.0
1235.021455	1027.0
1235.568151	1031.599976
1236.114791	1031.400024
1236.661374	1025.0
1237.207901	1027.199951
1237.754372	1032.599976
1238.300786	1033.800049
1238.847144	1029.199951
1239.393445	1038.400024
1239.93969	1035.0
1240.485879	1036.199951
1241.032011	1032.800049
1241.578087	1022.0
1242.124106	1024.400024
1242.67007	1028.199951
1243.215976	1024.0
1243.761827	1021.599976
1244.307621	1041.599976
1244.853359	1028.599976
1245.39904	1029.400024
1245.944665	1019.200012
1246.490234	1024.400024
1247.035746	1024.0
1247.581203	1023.400024
1248.126602	1034.0
1248.671946	1028.0
1249.217233	1024.199951
1249.762464	1030.199951
1250.307638	1023.400024
1250.852757	1015.799988
1251.397819	1030.400024
1251.942824	1022.799988
1252.487774	1019.200012
1253.032667	1022.599976
1253.577503	1021.200012
1254.122284	1024.599976
1254.667008	1026.0
1255.211676	1023.0
1255.756288	1016.0
1256.300843	1024.199951
1256.845342	1021.0
1257.389785	1018.599976
1257.934172	1027.199951
1258.478502	1030.400024
1259.022776	1022.200012
1259.566994	1028.400024
1260.111156	1029.800049
1260.655261	1031.800049
1261.199311	1019.200012
1261.743304	1026.400024
1262.28724	1023.0
1262.831121	1026.0
1263.374945	1025.599976
1263.918713	1027.599976
1264.462425	1032.599976
1265.006081	1034.199951
1265.54968	1031.599976
1266.093223	1018.599976
1266.636711	1021.799988
1267.180141	1023.200012
1267.723516	1028.599976
1268.266835	1023.0
1268.810097	1032.400024
1269.353303	1013.599976
1269.896453	1018.200012
1270.439547	1022.799988
1270.982584	1024.800049
1271.525566	1020.0
1272.068491	1023.200012
1272.61136	1021.599976
1273.154173	1026.599976
1273.69693	1030.800049
1274.239631	1016.200012
1274.782275	1012.400024
1275.324864	1010.400024
1275.867396	1026.599976
1276.409872	1012.0
1276.952292	1019.400024
1277.494656	1021.200012
1278.036964	1011.200012
1278.579215	1017.0
1279.121411	1014.0
1279.66355	1012.599976
1280.205634	1027.400024
1280.747661	1026.599976
1281.289632	1019.0
1281.831547	1025.599976
1282.373406	1020.799988
1282.915209	1020.599976
1283.456955	1033.800049
1283.998646	1029.400024
1284.540281	1064.400024
1285.081859	1166.199951
1285.623381	1176.800049
1286.164848	1091.0
1286.706258	1039.800049
1287.247612	1016.400024
1287.788911	1029.400024
1288.330153	1018.599976
1288.871339	1017.400024
1289.412469	1019.799988
1289.953543	1006.599976
1290.494561	1015.200012
1291.035523	1016.599976
1291.576428	1010.599976
1292.117278	1008.400024
1292.658072	1007.599976
1293.19881	1015.599976
1293.739492	1013.0
1294.280118	1005.400024
1294.820687	1014.400024
1295.361201	1010.400024
1295.901659	1013.599976
1296.442061	1008.599976
1296.982406	1004.200012
1297.522696	1010.599976
1298.06293	1010.799988
1298.603108	1001.400024
1299.143229	1007.400024
1299.683295	1003.200012
1300.223305	1004.599976
1300.763259	997.2000122
1301.303157	1008.599976
1301.842999	998.0
1302.382785	1011.400024
1302.922515	1014.0
1303.462189	1010.0
1304.001807	1003.200012
1304.541369	1013.200012
1305.080875	1001.200012
1305.620326	1012.200012
1306.15972	1003.0
1306.699058	1005.0
1307.238341	1006.200012
1307.777567	1006.599976
1308.316738	999.4000244
1308.855853	1003.400024
1309.394912	1007.0
1309.933915	1004.799988
1310.472862	1009.599976
1311.011753	1012.0
1311.550588	1006.599976
1312.089367	996.0
1312.62809	1009.200012
1313.166758	1004.400024
1313.70537	1010.0
1314.243925	997.4000244
1314.782425	1002.599976
1315.320869	991.7999878
1315.859257	991.4000244
1316.397589	1008.599976
1316.935866	998.7999878
1317.474086	1002.799988
1318.012251	999.4000244
1318.55036	1005.799988
1319.088413	998.5999756
1319.62641	997.5999756
1320.164351	993.7999878
1320.702236	1003.799988
1321.240066	997.5999756
1321.777839	995.0
1322.315557	1006.799988
1322.853219	1002.799988
1323.390826	992.7999878
1323.928376	1005.799988
1324.465871	998.5999756
1325.003309	994.7999878
1325.540692	1006.599976
1326.07802	993.5999756
1326.615291	1001.599976
1327.152506	996.2000122
1327.689666	997.7999878
1328.22677	998.5999756
1328.763818	997.7999878
1329.300811	1000.400024
1329.837747	994.4000244
1330.374628	992.5999756
1330.911453	1001.0
1331.448222	997.2000122
1331.984936	999.4000244
1332.521594	1001.200012
1333.058196	1004.200012
1333.594742	991.7999878
1334.131232	1002.799988
1334.667667	993.2000122
1335.204046	989.2000122
1335.740369	993.5999756
1336.276637	990.2000122
1336.812848	998.7999878
1337.349004	992.5999756
1337.885105	993.7999878
1338.421149	998.0
1338.957138	996.5999756
1339.493071	990.5999756
1340.028949	1006.400024
1340.56477	999.7999878
1341.100536	993.4000244
1341.636246	997.2000122
1342.171901	991.7999878
1342.7075	996.0
1343.243043	989.4000244
1343.77853	990.4000244
1344.313962	992.7999878
1344.849338	999.2000122
1345.384659	1000.400024
1345.919923	983.5999756
1346.455133	988.2000122
1346.990286	991.4000244
1347.525384	980.4000244
1348.060426	987.7999878
1348.595412	994.5999756
1349.130343	1001.599976
1349.665218	980.0
1350.200037	994.2000122
1350.734801	994.2000122
1351.269509	997.5999756
1351.804162	987.2000122
1352.338758	991.0
1352.8733	989.7999878
1353.407785	989.5999756
1353.942215	980.5999756
1354.476589	987.0
1355.010908	985.2000122
1355.545171	991.5999756
1356.079379	998.7999878
1356.61353	982.2000122
1357.147627	995.0
1357.681667	983.0
1358.215652	995.0
1358.749582	988.4000244
1359.283456	984.0
1359.817274	985.7999878
1360.351037	989.4000244
1360.884744	989.0
1361.418395	987.2000122
1361.951991	994.5999756
1362.485531	984.7999878
1363.019016	988.5999756
1363.552445	992.2000122
1364.085819	993.2000122
1364.619137	980.7999878
1365.1524	986.7999878
1365.685607	988.5999756
1366.218758	989.5999756
1366.751854	995.4000244
1367.284894	989.4000244
1367.817879	981.4000244
1368.350808	985.0
1368.883682	993.0
1369.4165	984.4000244
1369.949263	980.7999878
1370.48197	978.2000122
1371.014622	997.7999878
1371.547218	984.4000244
1372.079758	982.2000122
1372.612244	986.5999756
1373.144673	980.4000244
1373.677047	992.5999756
1374.209366	985.7999878
1374.741629	990.2000122
1375.273836	983.2000122
1375.805989	979.2000122
1376.338085	989.7999878
1376.870126	988.7999878
1377.402112	993.5999756
1377.934042	977.0
1378.465917	981.4000244
1378.997736	981.4000244
1379.5295	987.2000122
1380.061208	979.2000122
1380.592861	988.7999878
1381.124459	978.5999756
1381.656	984.5999756
1382.187487	985.0
1382.718918	989.0
1383.250294	978.4000244
1383.781614	980.2000122
1384.312879	978.2000122
1384.844088	988.7999878
1385.375242	995.5999756
1385.90634	984.2000122
1386.437383	985.7999878
1386.968371	990.5999756
1387.499303	1004.400024
1388.03018	1088.400024
1388.561001	1255.599976
1389.091767	1205.0
1389.622478	1045.599976
1390.153133	1005.200012
1390.683733	987.0
1391.214277	984.7999878
1391.744766	980.2000122
1392.2752	972.7999878
1392.805578	987.2000122
1393.335901	977.5999756
1393.866168	985.0
1394.396381	992.5999756
1394.926537	981.5999756
1395.456639	981.4000244
1395.986685	971.4000244
1396.516675	986.7999878
1397.046611	983.5999756
1397.576491	978.5999756
1398.106315	975.5999756
1398.636084	979.5999756
1399.165798	976.2000122
1399.695457	979.5999756
1400.22506	965.4000244
1400.754608	977.5999756
1401.284101	978.4000244
1401.813538	977.2000122
1402.34292	974.4000244
1402.872247	984.2000122
1403.401518	992.4000244
1403.930734	964.4000244
1404.459895	972.4000244
1404.989	974.2000122
1405.51805	977.2000122
1406.047045	979.5999756
1406.575984	974.4000244
1407.104869	979.5999756
1407.633697	979.4000244
1408.162471	973.5999756
1408.691189	980.4000244
1409.219852	992.0
1409.74846	995.2000122
1410.277013	1004.599976
1410.80551	996.2000122
1411.333952	973.4000244
1411.862339	981.4000244
1412.39067	983.2000122
1412.918946	971.2000122
1413.447167	974.2000122
1413.975333	976.0
1414.503444	979.5999756
1415.031499	967.7999878
1415.559499	989.7999878
1416.087444	977.4000244
1416.615333	969.0
1417.143167	966.2000122
1417.670947	977.7999878
1418.19867	972.5999756
1418.726339	967.0
1419.253952	975.5999756
1419.781511	977.0
1420.309014	971.0
1420.836461	966.5999756
1421.363854	971.5999756
1421.891191	978.0
1422.418474	970.4000244
1422.945701	970.2000122
1423.472872	971.7999878
1423.999989	970.2000122
1424.52705	974.0
1425.054057	970.2000122
1425.581008	967.4000244
1426.107904	964.7999878
1426.634745	971.2000122
1427.16153	965.0
1427.688261	977.2000122
1428.214936	968.7999878
1428.741556	960.2000122
1429.268121	959.4000244
1429.794631	970.7999878
1430.321085	959.2000122
1430.847485	971.2000122
1431.373829	968.2000122
1431.900118	967.4000244
1432.426353	968.4000244
1432.952532	964.7999878
1433.478655	962.5999756
1434.004724	971.7999878
1434.530738	968.2000122
1435.056696	963.0
1435.5826	976.4000244
1436.108448	965.4000244
1436.634241	966.0
1437.159979	958.4000244
1437.685662	967.0
1438.21129	958.2000122
1438.736863	972.5999756
1439.262381	968.4000244
1439.787843	972.5999756
1440.313251	967.4000244
1440.838603	954.7999878
1441.3639	961.2000122
1441.889143	962.0
1442.41433	969.7999878
1442.939462	962.4000244
1443.464539	964.5999756
1443.989561	968.0
1444.514528	957.7999878
1445.03944	957.2000122
1445.564297	960.2000122
1446.089099	963.5999756
1446.613846	958.2000122
1447.138537	953.4000244
1447.663174	962.4000244
1448.187756	961.2000122
1448.712282	955.0
1449.236754	959.0
1449.761171	970.4000244
1450.285532	965.0
1450.809839	967.5999756
1451.33409	958.2000122
1451.858287	961.2000122
1452.382428	961.7999878
1452.906515	960.0
1453.430546	957.4000244
1453.954523	961.0
1454.478444	959.7999878
1455.002311	963.5999756
1455.526123	955.7999878
1456.049879	960.0
1456.573581	960.4000244
1457.097227	957.7999878
1457.620819	961.7999878
1458.144356	955.7999878
1458.667837	956.4000244
1459.191264	956.4000244
1459.714636	959.5999756
1460.237952	956.4000244
1460.761214	957.4000244
1461.284421	964.5999756
1461.807573	964.4000244
1462.33067	963.7999878
1462.853712	961.0
1463.376699	969.7999878
1463.899632	960.2000122
1464.422509	954.5999756
1464.945331	957.7999878
1465.468099	957.7999878
1465.990811	950.7999878
1466.513469	953.7999878
1467.036071	961.4000244
1467.558619	957.5999756
1468.081112	953.2000122
1468.60355	953.4000244
1469.125933	957.5999756
1469.648261	952.7999878
1470.170534	963.2000122
1470.692752	957.7999878
1471.214916	957.5999756
1471.737024	939.4000244
1472.259078	958.4000244
1472.781077	955.4000244
1473.303021	952.0
1473.82491	952.0
1474.346744	964.0
1474.868523	956.7999878
1475.390248	953.5999756
1475.911917	956.0
1476.433532	953.2000122
1476.955092	944.0
1477.476597	952.2000122
1477.998047	951.0
1478.519442	954.2000122
1479.040783	948.2000122
1479.562068	952.5999756
1480.083299	952.2000122
1480.604475	961.7999878
1481.125596	950.4000244
1481.646663	949.0
1482.167674	954.5999756
1482.688631	949.0
1483.209533	947.0
1483.73038	949.7999878
1484.251172	946.7999878
1484.771909	950.0
1485.292592	950.5999756
1485.81322	957.2000122
1486.333793	954.0
1486.854311	939.7999878
1487.374775	954.0
1487.895183	940.5999756
1488.415537	947.7999878
1488.935836	945.7999878
1489.456081	944.4000244
1489.97627	945.4000244
1490.496405	945.7999878
1491.016485	943.5999756
1491.536511	933.4000244
1492.056481	952.4000244
1492.576397	946.2000122
1493.096258	951.2000122
1493.616064	943.7999878
1494.135816	952.5999756
1494.655513	939.2000122
1495.175155	943.2000122
1495.694742	946.5999756
1496.214274	946.7999878
1496.733752	951.7999878
1497.253175	941.2000122
1497.772544	950.2000122
1498.291858	946.5999756
1498.811116	950.5999756
1499.330321	940.5999756
1499.84947	955.5999756
1500.368565	943.5999756
1500.887605	945.7999878
1501.406591	934.5999756
1501.925521	939.2000122
1502.444397	945.2000122
1502.963219	955.7999878
1503.481985	946.4000244
1504.000697	950.2000122
1504.519355	942.7999878
1505.037957	939.0
1505.556505	945.4000244
1506.074999	942.0
1506.593437	938.0
1507.111821	942.2000122
1507.63015	942.4000244
1508.148425	941.4000244
1508.666645	941.0
1509.18481	946.4000244
1509.702921	948.7999878
1510.220977	941.2000122
1510.738979	951.5999756
1511.256925	944.5999756
1511.774817	946.7999878
1512.292655	945.2000122
1512.810438	940.0
1513.328166	945.5999756
1513.84584	939.4000244
1514.363459	931.5999756
1514.881023	937.0
1515.398533	942.5999756
1515.915988	940.0
1516.433389	938.4000244
1516.950734	945.4000244
1517.468026	953.4000244
1517.985263	939.2000122
1518.502445	942.4000244
1519.019572	942.7999878
1519.536645	934.2000122
1520.053664	946.0
1520.570628	933.2000122
1521.087537	947.2000122
1521.604392	942.7999878
1522.121192	939.0
1522.637937	936.4000244
1523.154628	931.4000244
1523.671265	933.0
1524.187847	951.2000122
1524.704374	935.4000244
1525.220847	935.2000122
1525.737265	936.0
1526.253629	943.2000122
1526.769938	939.5999756
1527.286192	938.4000244
1527.802392	932.4000244
1528.318538	944.2000122
1528.834629	941.7999878
1529.350666	942.7999878
1529.866648	941.0
1530.382575	930.5999756
1530.898448	941.0
1531.414266	934.5999756
1531.93003	929.4000244
1532.44574	942.7999878
1532.961395	929.0
1533.476995	935.5999756
1533.992541	937.0
1534.508033	936.2000122
1535.02347	937.4000244
1535.538852	943.0
1536.05418	928.7999878
1536.569454	938.0
1537.084673	941.5999756
1537.599837	940.2000122
1538.114947	940.7999878
1538.630003	945.5999756
1539.145004	931.7999878
1539.659951	928.2000122
1540.174843	938.2000122
1540.689681	935.0
1541.204465	935.2000122
1541.719194	935.7999878
1542.233868	938.5999756
1542.748488	931.5999756
1543.263054	934.4000244
1543.777565	937.7999878
1544.292022	930.7999878
1544.806424	933.7999878
1545.320772	936.2000122
1545.835066	935.4000244
1546.349305	937.5999756
1546.863489	936.5999756
1547.37762	935.4000244
1547.891696	934.2000122
1548.405717	928.5999756
1548.919684	929.7999878
1549.433597	942.4000244
1549.947455	935.4000244
1550.461259	938.4000244
1550.975009	934.4000244
1551.488704	934.5999756
1552.002345	926.4000244
1552.515931	941.0
1553.029463	928.5999756
1553.542941	935.0
1554.056364	935.0
1554.569733	927.2000122
1555.083048	939.2000122
1555.596308	930.4000244
1556.109514	933.2000122
1556.622665	940.0
1557.135762	926.5999756
1557.648805	932.4000244
1558.161794	935.5999756
1558.674728	929.0
1559.187608	935.7999878
1559.700433	928.7999878
1560.213205	927.2000122
1560.725921	933.7999878
1561.238584	933.0
1561.751192	938.5999756
1562.263746	922.4000244
1562.776246	933.5999756
1563.288691	934.0
1563.801082	936.4000244
1564.313419	938.4000244
1564.825701	930.0
1565.337929	927.2000122
1565.850103	937.2000122
1566.362223	928.7999878
1566.874288	935.7999878
1567.386299	922.2000122
1567.898256	932.7999878
1568.410158	924.7999878
1568.922007	926.4000244
1569.4338	929.4000244
1569.94554	927.2000122
1570.457226	929.2000122
1570.968857	933.4000244
1571.480434	934.2000122
1571.991956	931.0
1572.503425	931.4000244
1573.014839	933.2000122
1573.526199	932.2000122
1574.037505	938.0
1574.548756	933.7999878
1575.059953	931.2000122
1575.571096	927.7999878
1576.082185	926.7999878
1576.59322	925.2000122
1577.1042	930.0
1577.615126	927.5999756
1578.125998	930.5999756
1578.636816	928.4000244
1579.14758	927.5999756
1579.658289	919.5999756
1580.168944	924.4000244
1580.679545	932.0
1581.190092	928.2000122
1581.700585	933.2000122
1582.211023	933.2000122
1582.721407	923.5999756
1583.231737	922.2000122
1583.742013	927.0
1584.252235	922.7999878
1584.762403	931.2000122
1585.272516	922.7999878
1585.782575	931.4000244
1586.292581	923.7999878
1586.802532	926.2000122
1587.312428	934.2000122
1587.822271	933.0
1588.33206	932.4000244
1588.841794	923.0
1589.351474	922.5999756
1589.8611	926.0
1590.370672	921.0
1590.88019	924.0
1591.389654	919.5999756
1591.899064	925.7999878
