1042.452273	682.4000244
1043.018714	679.5999756
1043.585098	678.4000244
1044.151424	680.5999756
1044.717692	679.7999878
1045.283903	682.0
1045.850056	677.5999756
1046.416151	679.5999756
1046.982188	680.4000244
1047.548167	679.4000244
1048.114089	678.5999756
1048.679953	678.5999756
1049.24576	680.2000122
1049.811509	680.7999878
1050.3772	679.5999756
1050.942833	679.7999878
1051.508408	679.4000244
1052.073926	679.5999756
1052.639387	676.2000122
1053.204789	675.0
1053.770134	675.2000122
1054.335421	677.2000122
1054.900651	679.0
1055.465823	676.7999878
1056.030937	678.7999878
1056.595993	676.4000244
1057.160992	676.5999756
1057.725934	674.2000122
1058.290817	675.7999878
1058.855643	677.5999756
1059.420411	676.2000122
1059.985122	676.7999878
1060.549775	674.7999878
1061.114371	676.4000244
1061.678908	674.4000244
1062.243389	675.7999878
1062.807811	674.2000122
1063.372176	675.2000122
1063.936483	678.2000122
1064.500733	676.7999878
1065.064925	677.7999878
1065.62906	673.2000122
1066.193137	675.2000122
1066.757156	676.5999756
1067.321118	676.5999756
1067.885022	675.7999878
1068.448869	674.7999878
1069.012658	676.7999878
1069.57639	678.0
1070.140063	681.7999878
1070.70368	675.7999878
1071.267239	671.2000122
1071.83074	675.2000122
1072.394184	677.5999756
1072.95757	675.5999756
1073.520899	672.0
1074.08417	674.2000122
1074.647383	683.4000244
1075.773638	684.2000122
1076.336679	675.5999756
1076.899663	676.4000244
1077.462589	673.0
1078.025457	676.2000122
1078.588268	673.7999878
1079.151022	674.0
1079.713718	674.4000244
1080.276356	679.2000122
1080.838937	676.0
1081.401461	671.7999878
1081.963927	677.2000122
1082.526336	673.0
1083.088687	673.4000244
1083.650981	675.7999878
1084.213217	672.4000244
1084.775396	675.0
1085.337517	675.7999878
1085.899581	674.7999878
1086.461587	676.7999878
1087.023536	674.4000244
1087.585428	674.4000244
1088.147262	670.7999878
1088.709039	677.0
1089.270758	674.5999756
1089.83242	673.2000122
1090.394024	672.0
1090.955571	675.4000244
1091.517061	673.7999878
1092.078493	671.4000244
1092.639868	675.0
1093.201185	672.0
1093.762445	676.0
1094.323648	672.7999878
1094.884793	674.7999878
1095.445881	676.0
1096.006911	672.5999756
1096.567884	674.0
1097.1288	680.4000244
1097.689659	674.5999756
1098.25046	676.7999878
1098.811203	673.7999878
1099.37189	673.2000122
1099.932518	672.7999878
1100.49309	675.2000122
1101.053604	673.7999878
1101.614061	675.0
1102.174461	676.0
1102.734803	671.5999756
1103.295088	677.2000122
1103.855316	675.4000244
1104.415486	673.2000122
1104.975599	674.7999878
1105.535655	676.4000244
1106.095653	672.2000122
1106.655594	673.7999878
1107.215478	673.7999878
1107.775305	672.4000244
1108.335074	674.4000244
1108.894786	672.5999756
1109.45444	672.5999756
1110.014038	676.2000122
1110.573578	673.5999756
1111.133061	678.0
1111.692486	675.7999878
1112.251854	676.7999878
1112.811165	674.4000244
1113.370419	674.2000122
1113.929616	674.2000122
1114.488755	672.7999878
1115.047837	673.2000122
1115.606862	673.2000122
1116.16583	674.7999878
1116.72474	674.2000122
1117.283593	676.0
1117.842389	670.4000244
1118.401128	674.2000122
1118.959809	673.0
1119.518433	670.7999878
1120.077	672.7999878
1120.63551	672.2000122
1121.193963	671.4000244
1121.752358	671.4000244
1122.310697	673.5999756
1122.868978	671.7999878
1123.427202	673.5999756
1123.985368	670.7999878
1124.543478	671.7999878
1125.10153	674.4000244
1125.659526	670.2000122
1126.217464	672.2000122
1126.775345	671.4000244
1127.333168	672.5999756
1127.890935	673.7999878
1128.448644	674.0
1129.006297	670.7999878
1129.563892	672.0
1130.12143	674.2000122
1130.678911	674.2000122
1131.236335	674.7999878
1131.793701	672.2000122
1132.351011	671.2000122
1132.908263	676.2000122
1133.465458	671.7999878
1134.022597	674.2000122
1134.579678	674.2000122
1135.136702	671.7999878
1135.693669	674.5999756
1136.250578	675.2000122
1136.807431	675.5999756
1137.364227	675.5999756
1137.920965	672.0
1138.477647	671.4000244
1139.034271	671.4000244
1139.590839	674.4000244
1140.147349	672.4000244
1140.703802	672.0
1141.260198	674.5999756
1141.816537	671.4000244
1142.37282	672.0
1142.929045	673.2000122
1143.485213	672.2000122
1144.041323	672.5999756
1144.597377	675.2000122
1145.153374	673.5999756
1145.709314	672.2000122
1146.265197	671.7999878
1146.821023	671.2000122
1147.376792	671.5999756
1147.932503	673.4000244
1148.488158	670.7999878
1149.043756	670.4000244
1149.599297	672.0
1150.154781	674.2000122
1150.710207	672.4000244
1151.265577	674.0
1151.82089	674.5999756
1152.376146	669.5999756
1152.931345	671.4000244
1153.486487	673.0
1154.041572	675.4000244
1154.5966	673.4000244
1155.151571	672.4000244
1155.706485	670.4000244
1156.261342	674.0
1156.816142	673.2000122
1157.370885	672.0
1157.925572	672.7999878
1158.480201	672.0
1159.034774	672.4000244
1159.589289	670.2000122
1160.143748	670.4000244
1160.698149	670.5999756
1161.252494	674.2000122
1161.806782	673.4000244
1162.361013	674.2000122
1162.915187	676.2000122
1163.469304	675.2000122
1164.023364	672.4000244
1164.577368	672.0
1165.131314	673.0
1165.685204	670.0
1166.239036	674.2000122
1166.792812	672.2000122
1167.346531	672.2000122
1167.900193	671.7999878
1168.453798	673.2000122
1169.007347	671.4000244
1169.560838	671.4000244
1170.114273	670.5999756
1170.66765	671.7999878
1171.220971	671.4000244
1171.774235	672.7999878
1172.327443	670.0
1172.880593	673.0
1173.433687	672.4000244
1173.986723	674.4000244
1174.539703	675.0
1175.092626	672.2000122
1175.645493	670.7999878
1176.198302	671.4000244
1176.751055	670.7999878
1177.303751	671.4000244
1177.85639	673.4000244
1178.408972	672.4000244
1178.961498	672.7999878
1179.513966	673.2000122
1180.066378	672.5999756
1180.618733	669.7999878
1181.171032	672.4000244
1181.723273	672.2000122
1182.275458	676.0
1182.827586	675.7999878
1183.379657	669.2000122
1183.931672	671.7999878
1184.48363	670.5999756
1185.035531	674.4000244
1185.587375	673.4000244
1186.139162	716.2000122
1186.690893	735.4000244
1187.242567	672.2000122
1187.794184	671.5999756
1188.345745	673.4000244
1188.897249	672.4000244
1189.448696	674.0
1190.000086	671.5999756
1190.55142	670.2000122
1191.102697	669.4000244
1191.653918	671.4000244
1192.205081	674.0
1192.756188	671.5999756
1193.307238	686.2000122
1193.858232	670.0
1194.409169	670.5999756
1194.960049	670.5999756
1195.510872	671.2000122
1196.061639	667.7999878
1196.612349	671.5999756
1197.163003	670.7999878
1197.713599	672.4000244
1198.264139	672.5999756
1198.814623	671.0
1199.36505	671.2000122
1199.91542	673.4000244
1200.465734	671.0
1201.01599	672.2000122
1201.566191	671.5999756
1202.116334	673.0
1202.666421	671.5999756
1203.216452	673.7999878
1203.766425	671.2000122
1204.316343	671.4000244
1204.866203	672.5999756
1205.416007	672.4000244
1205.965754	671.7999878
1206.515445	671.0
1207.065079	671.5999756
1207.614657	674.0
1208.164177	670.0
1208.713642	671.0
1209.26305	671.0
1209.812401	673.0
1210.361695	672.5999756
1210.910933	670.4000244
1211.460115	671.5999756
1212.00924	672.5999756
1212.558308	669.2000122
1213.10732	669.4000244
1213.656275	670.4000244
1214.205174	667.7999878
1214.754016	673.4000244
1215.302801	670.4000244
1215.85153	673.2000122
1216.400203	668.7999878
1216.948819	669.5999756
1217.497378	670.4000244
1218.045881	669.2000122
1218.594327	670.2000122
1219.142717	672.2000122
1219.691051	672.0
1220.239327	671.2000122
1220.787548	668.5999756
1221.335712	671.7999878
1221.883819	670.5999756
1222.43187	671.5999756
1222.979864	673.5999756
1223.527802	670.5999756
1224.075683	668.2000122
1224.623508	670.7999878
1225.171277	671.2000122
1225.718989	671.4000244
1226.266644	672.2000122
1226.814243	671.5999756
1227.361786	672.5999756
1227.909272	669.5999756
1228.456702	670.2000122
1229.004075	668.2000122
1229.551392	671.2000122
1230.098652	670.5999756
1230.645856	669.0
1231.193003	671.4000244
1231.740094	675.2000122
1232.287129	669.2000122
1232.834107	673.2000122
1233.381029	672.0
1233.927894	667.5999756
1234.474703	669.4000244
1235.021455	671.4000244
1235.568151	673.2000122
1236.114791	670.0
1236.661374	674.4000244
1237.207901	670.0
1237.754372	673.4000244
1238.300786	669.5999756
1238.847144	672.7999878
1239.393445	674.2000122
1239.93969	673.0
1240.485879	673.4000244
1241.032011	669.5999756
1241.578087	674.4000244
1242.124106	671.5999756
1242.67007	669.5999756
1243.215976	674.0
1243.761827	672.0
1244.307621	672.4000244
1244.853359	671.4000244
1245.39904	671.4000244
1245.944665	670.0
1246.490234	671.2000122
1247.035746	670.4000244
1247.581203	672.5999756
1248.126602	668.2000122
1248.671946	671.0
1249.217233	671.7999878
1249.762464	673.2000122
1250.307638	675.7999878
1250.852757	674.2000122
1251.397819	672.5999756
1251.942824	672.0
1252.487774	673.0
1253.032667	668.7999878
1253.577503	674.5999756
1254.122284	670.0
1254.667008	671.4000244
1255.211676	672.0
1255.756288	674.0
1256.300843	672.5999756
1256.845342	672.2000122
1257.389785	673.5999756
1257.934172	669.2000122
1258.478502	671.4000244
1259.022776	673.7999878
1259.566994	674.7999878
1260.111156	684.0
1260.655261	670.2000122
1261.199311	670.4000244
1261.743304	671.5999756
1262.28724	672.2000122
1262.831121	674.4000244
1263.374945	674.5999756
1263.918713	678.0
1264.462425	679.0
1265.006081	684.7999878
1265.54968	686.5999756
1266.093223	679.2000122
1266.636711	674.7999878
1267.180141	675.4000244
1267.723516	671.7999878
1268.266835	674.5999756
1268.810097	672.5999756
1269.353303	670.2000122
1269.896453	674.4000244
1270.439547	670.4000244
1270.982584	672.5999756
1271.525566	670.7999878
1272.068491	674.2000122
1272.61136	671.5999756
1273.154173	670.0
1273.69693	673.0
1274.239631	672.5999756
1274.782275	673.2000122
1275.324864	671.2000122
1275.867396	674.2000122
1276.409872	671.0
1276.952292	672.4000244
1277.494656	669.4000244
1278.036964	672.7999878
1278.579215	673.5999756
1279.121411	671.7999878
1279.66355	676.5999756
1280.205634	673.5999756
1280.747661	671.4000244
1281.289632	668.5999756
1281.831547	673.5999756
1282.373406	674.2000122
1282.915209	676.2000122
1283.456955	680.5999756
1283.998646	689.4000244
1284.540281	717.4000244
1285.081859	801.0
1285.623381	914.7999878
1286.164848	802.4000244
1286.706258	705.2000122
1287.247612	680.7999878
1287.788911	677.4000244
1288.330153	674.5999756
1288.871339	673.7999878
1289.412469	672.5999756
1289.953543	671.0
1290.494561	672.5999756
1291.035523	671.4000244
1291.576428	673.5999756
1292.117278	672.2000122
1292.658072	672.4000244
1293.19881	670.7999878
1293.739492	670.2000122
1294.280118	671.4000244
1294.820687	673.7999878
1295.361201	671.5999756
1295.901659	670.7999878
1296.442061	669.2000122
1296.982406	673.5999756
1297.522696	673.7999878
1298.06293	669.2000122
1298.603108	672.2000122
1299.143229	673.7999878
1299.683295	669.0
1300.223305	672.5999756
1300.763259	672.2000122
1301.303157	672.0
1301.842999	670.4000244
1302.382785	670.5999756
1302.922515	674.2000122
1303.462189	671.0
1304.001807	673.0
1304.541369	673.4000244
1305.080875	672.0
1305.620326	669.5999756
1306.15972	667.5999756
1306.699058	670.5999756
1307.238341	668.7999878
1307.777567	670.7999878
1308.316738	669.2000122
1308.855853	670.7999878
1309.394912	671.0
1309.933915	670.5999756
1310.472862	671.2000122
1311.011753	669.4000244
1311.550588	670.7999878
1312.089367	672.2000122
1312.62809	673.2000122
1313.166758	672.0
1313.70537	667.4000244
1314.243925	671.7999878
1314.782425	670.4000244
1315.320869	672.2000122
1315.859257	671.0
1316.397589	672.0
1316.935866	669.4000244
1317.474086	670.0
1318.012251	669.5999756
1318.55036	671.2000122
1319.088413	671.0
1319.62641	671.2000122
1320.164351	669.5999756
1320.702236	671.7999878
1321.240066	671.0
1321.777839	671.0
1322.315557	668.7999878
1322.853219	671.2000122
1323.390826	668.7999878
1323.928376	673.7999878
1324.465871	672.4000244
1325.003309	671.2000122
1325.540692	670.0
1326.07802	671.4000244
1326.615291	668.2000122
1327.152506	669.0
1327.689666	671.7999878
1328.22677	672.0
1328.763818	667.7999878
1329.300811	673.5999756
1329.837747	670.4000244
1330.374628	669.5999756
1330.911453	672.0
1331.448222	672.0
1331.984936	671.4000244
1332.521594	669.0
1333.058196	670.2000122
1333.594742	670.5999756
1334.131232	669.7999878
1334.667667	670.5999756
1335.204046	670.5999756
1335.740369	671.7999878
1336.276637	672.2000122
1336.812848	671.2000122
1337.349004	670.7999878
1337.885105	671.2000122
1338.421149	673.4000244
1338.957138	670.7999878
1339.493071	668.7999878
1340.028949	671.0
1340.56477	669.4000244
1341.100536	671.7999878
1341.636246	671.7999878
1342.171901	673.5999756
1342.7075	668.2000122
1343.243043	670.4000244
1343.77853	671.2000122
1344.313962	669.5999756
1344.849338	670.7999878
1345.384659	669.7999878
1345.919923	673.4000244
1346.455133	671.0
1346.990286	670.7999878
1347.525384	672.0
1348.060426	671.4000244
1348.595412	671.0
1349.130343	672.5999756
1349.665218	669.7999878
1350.200037	672.5999756
1350.734801	673.2000122
1351.269509	669.5999756
1351.804162	668.5999756
1352.338758	671.7999878
1352.8733	669.4000244
1353.407785	673.0
1353.942215	673.0
1354.476589	670.2000122
1355.010908	670.0
1355.545171	670.7999878
1356.079379	674.4000244
1356.61353	671.4000244
1357.147627	670.7999878
1357.681667	668.7999878
1358.215652	670.7999878
1358.749582	671.5999756
1359.283456	670.7999878
1359.817274	671.4000244
1360.351037	672.2000122
1360.884744	668.2000122
1361.418395	672.2000122
1361.951991	671.4000244
1362.485531	670.2000122
1363.019016	671.2000122
1363.552445	670.5999756
1364.085819	671.0
1364.619137	668.0
1365.1524	670.7999878
1365.685607	669.7999878
1366.218758	671.2000122
1366.751854	671.4000244
1367.284894	670.4000244
1367.817879	671.5999756
1368.350808	669.5999756
1368.883682	670.7999878
1369.4165	671.5999756
1369.949263	671.7999878
1370.48197	677.2000122
1371.014622	674.2000122
1371.547218	672.5999756
1372.079758	671.7999878
1372.612244	672.7999878
1373.144673	670.4000244
1373.677047	670.7999878
1374.209366	669.5999756
1374.741629	669.0
1375.273836	667.5999756
1375.805989	670.4000244
1376.338085	674.2000122
1376.870126	669.7999878
1377.402112	671.7999878
1377.934042	673.0
1378.465917	670.0
1378.997736	672.4000244
1379.5295	672.0
1380.061208	670.0
1380.592861	671.5999756
1381.124459	670.7999878
1381.656	670.4000244
1382.187487	672.0
1382.718918	673.5999756
1383.250294	670.7999878
1383.781614	670.0
1384.312879	671.4000244
1384.844088	671.0
1385.375242	675.7999878
1385.90634	674.2000122
1386.437383	678.0
1386.968371	681.7999878
1387.499303	690.7999878
1388.03018	742.5999756
1388.561001	987.4000244
1389.091767	1089.199951
1389.622478	791.0
1390.153133	697.0
1390.683733	680.0
1391.214277	677.4000244
1391.744766	676.5999756
1392.2752	675.2000122
1392.805578	673.2000122
1393.335901	675.4000244
1393.866168	676.5999756
1394.396381	670.0
1394.926537	671.2000122
1395.456639	672.7999878
1395.986685	671.5999756
1396.516675	668.0
1397.046611	670.7999878
1397.576491	669.0
1398.106315	671.4000244
1398.636084	669.7999878
1399.165798	669.7999878
1399.695457	670.4000244
1400.22506	669.7999878
1400.754608	669.2000122
1401.284101	671.2000122
1401.813538	670.2000122
1402.34292	672.7999878
1402.872247	670.0
1403.401518	671.7999878
1403.930734	672.0
1404.459895	670.7999878
1404.989	672.2000122
1405.51805	670.5999756
1406.047045	670.0
1406.575984	667.4000244
1407.104869	672.5999756
1407.633697	672.0
1408.162471	670.7999878
1408.691189	672.7999878
1409.219852	676.7999878
1409.74846	685.7999878
1410.277013	699.7999878
1410.80551	691.5999756
1411.333952	675.7999878
1411.862339	673.0
1412.39067	672.5999756
1412.918946	667.4000244
1413.447167	669.7999878
1413.975333	673.7999878
1414.503444	671.5999756
1415.031499	670.4000244
1415.559499	682.4000244
1416.087444	672.0
1416.615333	667.4000244
1417.143167	669.7999878
1417.670947	670.2000122
1418.19867	671.4000244
1418.726339	669.0
1419.253952	668.7999878
1419.781511	669.5999756
1420.309014	672.0
1420.836461	668.4000244
1421.363854	669.7999878
1421.891191	668.0
1422.418474	669.4000244
1422.945701	670.2000122
1423.472872	669.7999878
1423.999989	671.0
1424.52705	671.0
1425.054057	671.2000122
1425.581008	670.2000122
1426.107904	669.2000122
1426.634745	668.5999756
1427.16153	671.5999756
1427.688261	670.5999756
1428.214936	671.4000244
1428.741556	669.2000122
1429.268121	668.0
1429.794631	668.5999756
1430.321085	669.0
1430.847485	669.5999756
1431.373829	670.4000244
1431.900118	670.2000122
1432.426353	667.5999756
1432.952532	669.2000122
1433.478655	668.0
1434.004724	667.0
1434.530738	671.0
1435.056696	669.4000244
1435.5826	670.4000244
1436.108448	669.4000244
1436.634241	667.7999878
1437.159979	670.5999756
1437.685662	669.0
1438.21129	668.0
1438.736863	665.4000244
1439.262381	666.7999878
1439.787843	667.5999756
1440.313251	670.5999756
1440.838603	668.4000244
1441.3639	668.4000244
1441.889143	667.5999756
1442.41433	669.4000244
1442.939462	667.7999878
1443.464539	666.7999878
1443.989561	669.7999878
1444.514528	665.4000244
1445.03944	667.7999878
1445.564297	667.4000244
1446.089099	667.7999878
1446.613846	668.2000122
1447.138537	669.4000244
1447.663174	668.4000244
1448.187756	670.5999756
1448.712282	668.2000122
1449.236754	667.5999756
1449.761171	669.5999756
1450.285532	666.4000244
1450.809839	671.0
1451.33409	669.5999756
1451.858287	672.4000244
1452.382428	668.7999878
1452.906515	668.0
1453.430546	665.7999878
1453.954523	670.5999756
1454.478444	669.4000244
1455.002311	668.7999878
1455.526123	669.7999878
1456.049879	668.7999878
1456.573581	668.5999756
1457.097227	668.5999756
1457.620819	668.5999756
1458.144356	668.4000244
1458.667837	668.4000244
1459.191264	668.0
1459.714636	668.4000244
1460.237952	669.0
1460.761214	668.5999756
1461.284421	666.7999878
1461.807573	669.5999756
1462.33067	667.4000244
1462.853712	668.5999756
1463.376699	672.5999756
1463.899632	668.5999756
1464.422509	669.2000122
1464.945331	670.0
1465.468099	666.4000244
1465.990811	667.5999756
1466.513469	667.2000122
1467.036071	668.0
1467.558619	666.0
1468.081112	669.5999756
1468.60355	669.4000244
1469.125933	670.2000122
1469.648261	669.5999756
1470.170534	667.7999878
1470.692752	667.0
1471.214916	669.0
1471.737024	669.5999756
1472.259078	667.5999756
1472.781077	668.7999878
1473.303021	667.5999756
1473.82491	669.0
1474.346744	669.7999878
1474.868523	670.4000244
1475.390248	671.4000244
1475.911917	667.4000244
1476.433532	667.2000122
1476.955092	668.7999878
1477.476597	667.0
1477.998047	667.0
1478.519442	671.5999756
1479.040783	669.0
1479.562068	665.7999878
1480.083299	669.2000122
1480.604475	667.7999878
1481.125596	667.7999878
1481.646663	667.0
1482.167674	667.7999878
1482.688631	665.4000244
1483.209533	666.0
1483.73038	668.4000244
1484.251172	668.7999878
1484.771909	669.0
1485.292592	666.4000244
1485.81322	667.0
1486.333793	669.4000244
1486.854311	668.0
1487.374775	668.5999756
1487.895183	669.2000122
1488.415537	668.4000244
1488.935836	667.2000122
1489.456081	670.0
1489.97627	666.0
1490.496405	667.0
1491.016485	668.4000244
1491.536511	665.5999756
1492.056481	666.5999756
1492.576397	666.0
1493.096258	667.0
1493.616064	666.5999756
1494.135816	667.4000244
1494.655513	665.5999756
1495.175155	664.7999878
1495.694742	668.4000244
1496.214274	669.2000122
1496.733752	668.0
1497.253175	667.7999878
1497.772544	667.7999878
1498.291858	669.7999878
1498.811116	669.2000122
1499.330321	666.4000244
1499.84947	673.5999756
1500.368565	666.5999756
1500.887605	668.5999756
1501.406591	667.5999756
1501.925521	669.0
1502.444397	668.2000122
1502.963219	666.7999878
1503.481985	666.7999878
1504.000697	668.0
1504.519355	667.7999878
1505.037957	665.7999878
1505.556505	666.4000244
1506.074999	667.0
1506.593437	667.7999878
1507.111821	666.0
1507.63015	665.5999756
1508.148425	667.0
1508.666645	667.4000244
1509.18481	665.5999756
1509.702921	666.7999878
1510.220977	665.5999756
1510.738979	675.7999878
1511.256925	667.2000122
1511.774817	668.2000122
1512.292655	666.2000122
1512.810438	668.5999756
1513.328166	667.0
1513.84584	665.5999756
1514.363459	667.5999756
1514.881023	668.4000244
1515.398533	663.7999878
1515.915988	667.0
1516.433389	666.4000244
1516.950734	666.2000122
1517.468026	671.4000244
1517.985263	667.5999756
1518.502445	668.7999878
1519.019572	668.5999756
1519.536645	666.5999756
1520.053664	666.0
1520.570628	667.2000122
1521.087537	666.0
1521.604392	671.4000244
1522.121192	667.5999756
1522.637937	668.0
1523.154628	667.5999756
1523.671265	669.0
1524.187847	667.7999878
1524.704374	668.5999756
1525.220847	669.7999878
1525.737265	666.2000122
1526.253629	670.4000244
1526.769938	669.0
1527.286192	667.0
1527.802392	668.7999878
1528.318538	668.0
1528.834629	669.0
1529.350666	666.2000122
1529.866648	668.5999756
1530.382575	668.5999756
1530.898448	667.5999756
1531.414266	667.5999756
1531.93003	668.4000244
1532.44574	667.2000122
1532.961395	667.7999878
1533.476995	665.7999878
1533.992541	665.7999878
1534.508033	668.0
1535.02347	669.0
1535.538852	665.7999878
1536.05418	667.2000122
1536.569454	664.2000122
1537.084673	665.7999878
1537.599837	667.2000122
1538.114947	669.5999756
1538.630003	666.5999756
1539.145004	665.7999878
1539.659951	667.2000122
1540.174843	668.0
1540.689681	666.5999756
1541.204465	666.4000244
1541.719194	668.0
1542.233868	668.7999878
1542.748488	666.7999878
1543.263054	668.2000122
1543.777565	667.5999756
1544.292022	668.4000244
1544.806424	667.4000244
1545.320772	667.0
1545.835066	667.7999878
1546.349305	666.7999878
1546.863489	663.7999878
1547.37762	665.4000244
1547.891696	664.7999878
1548.405717	670.5999756
1548.919684	665.5999756
1549.433597	668.4000244
1549.947455	663.5999756
1550.461259	667.0
1550.975009	667.2000122
1551.488704	667.5999756
1552.002345	670.0
1552.515931	666.5999756
1553.029463	668.4000244
1553.542941	668.5999756
1554.056364	668.5999756
1554.569733	666.7999878
1555.083048	667.2000122
1555.596308	667.4000244
1556.109514	668.7999878
1556.622665	669.2000122
1557.135762	668.2000122
1557.648805	668.0
1558.161794	666.5999756
1558.674728	666.7999878
1559.187608	666.5999756
1559.700433	667.0
1560.213205	667.0
1560.725921	666.5999756
1561.238584	665.5999756
1561.751192	665.5999756
1562.263746	668.0
1562.776246	666.2000122
1563.288691	669.0
1563.801082	669.0
1564.313419	666.7999878
1564.825701	666.7999878
1565.337929	667.5999756
1565.850103	668.4000244
1566.362223	669.0
1566.874288	665.5999756
1567.386299	667.7999878
1567.898256	668.0
1568.410158	666.4000244
1568.922007	666.2000122
1569.4338	667.5999756
1569.94554	667.2000122
1570.457226	668.7999878
1570.968857	667.7999878
1571.480434	665.0
1571.991956	669.0
1572.503425	665.2000122
1573.014839	666.4000244
1573.526199	666.7999878
1574.037505	664.7999878
1574.548756	669.2000122
1575.059953	665.7999878
1575.571096	667.4000244
1576.082185	665.2000122
1576.59322	666.7999878
1577.1042	662.4000244
1577.615126	669.2000122
1578.125998	666.7999878
1578.636816	668.2000122
1579.14758	665.7999878
1579.658289	666.7999878
1580.168944	665.7999878
1580.679545	666.5999756
1581.190092	669.4000244
1581.700585	666.5999756
1582.211023	667.5999756
1582.721407	666.2000122
1583.231737	666.5999756
1583.742013	665.0
1584.252235	665.7999878
1584.762403	670.0
1585.272516	666.4000244
1585.782575	669.4000244
1586.292581	665.7999878
1586.802532	665.4000244
1587.312428	667.2000122
1587.822271	666.7999878
1588.33206	667.0
1588.841794	663.5999756
1589.351474	665.7999878
1589.8611	665.7999878
1590.370672	665.5999756
1590.88019	666.7999878
1591.389654	664.2000122
1591.899064	667.4000244
1592.408419	666.4000244
