1042.452273	710.5999756
1043.018714	711.5999756
1043.585098	710.2000122
1044.151424	710.5999756
1044.717692	710.7999878
1045.283903	707.2000122
1045.850056	706.7999878
1046.416151	706.2000122
1046.982188	705.0
1047.548167	703.0
1048.114089	704.4000244
1048.679953	705.0
1049.24576	707.0
1049.811509	703.2000122
1050.3772	704.5999756
1050.942833	708.5999756
1051.508408	702.0
1052.073926	700.7999878
1052.639387	705.0
1053.204789	704.5999756
1053.770134	705.0
1054.335421	704.2000122
1054.900651	705.0
1055.465823	705.5999756
1056.030937	704.0
1056.595993	699.2000122
1057.160992	701.2000122
1057.725934	702.5999756
1058.290817	703.5999756
1058.855643	704.0
1059.420411	698.7999878
1059.985122	701.7999878
1060.549775	702.4000244
1061.114371	704.2000122
1061.678908	703.7999878
1062.243389	699.7999878
1062.807811	707.2000122
1063.372176	705.4000244
1063.936483	703.0
1064.500733	700.0
1065.064925	700.5999756
1065.62906	706.7999878
1066.193137	702.7999878
1066.757156	705.0
1067.321118	701.7999878
1067.885022	703.7999878
1068.448869	704.7999878
1069.012658	702.0
1069.57639	704.0
1070.140063	707.0
1070.70368	701.5999756
1071.267239	701.7999878
1071.83074	706.0
1072.394184	701.0
1072.95757	700.5999756
1073.520899	701.0
1074.08417	705.2000122
1074.647383	698.4000244
1075.21054	705.2000122
1075.773638	699.5999756
1076.336679	700.7999878
1076.899663	701.7999878
1077.462589	702.2000122
1078.025457	702.7999878
1078.588268	698.2000122
1079.151022	701.5999756
1079.713718	703.4000244
1080.276356	700.7999878
1080.838937	697.7999878
1081.401461	698.4000244
1081.963927	699.7999878
1082.526336	702.0
1083.088687	697.7999878
1083.650981	700.2000122
1084.213217	701.0
1084.775396	699.4000244
1085.337517	699.0
1085.899581	701.5999756
1086.461587	698.7999878
1087.023536	698.5999756
1087.585428	700.4000244
1088.147262	698.7999878
1088.709039	695.5999756
1089.270758	701.5999756
1089.83242	699.7999878
1090.394024	699.5999756
1090.955571	703.0
1091.517061	699.4000244
1092.078493	699.0
1092.639868	696.7999878
1093.201185	696.2000122
1093.762445	698.4000244
1094.323648	703.7999878
1094.884793	701.5999756
1095.445881	702.4000244
1096.006911	697.0
1096.567884	698.4000244
1097.1288	701.5999756
1097.689659	699.4000244
1098.25046	701.2000122
1098.811203	700.5999756
1099.37189	701.2000122
1099.932518	697.7999878
1100.49309	695.7999878
1101.053604	696.0
1101.614061	697.5999756
1102.174461	695.4000244
1102.734803	700.5999756
1103.295088	696.4000244
1103.855316	703.5999756
1104.415486	703.0
1104.975599	699.0
1105.535655	700.7999878
1106.095653	698.2000122
1106.655594	698.4000244
1107.215478	698.4000244
1107.775305	698.0
1108.335074	698.0
1108.894786	693.2000122
1109.45444	696.7999878
1110.014038	699.2000122
1110.573578	699.0
1111.133061	697.7999878
1111.692486	696.0
1112.251854	699.0
1112.811165	695.0
1113.370419	700.2000122
1113.929616	697.4000244
1114.488755	701.0
1115.047837	698.2000122
1115.606862	697.0
1116.16583	698.7999878
1116.72474	700.4000244
1117.283593	697.5999756
1117.842389	696.0
1118.401128	694.2000122
1118.959809	698.0
1119.518433	694.4000244
1120.077	695.7999878
1120.63551	695.7999878
1121.193963	697.0
1121.752358	701.2000122
1122.310697	696.7999878
1122.868978	694.7999878
1123.427202	696.7999878
1123.985368	695.2000122
1124.543478	698.5999756
1125.10153	693.0
1125.659526	699.4000244
1126.217464	693.4000244
1126.775345	694.4000244
1127.333168	698.5999756
1127.890935	694.2000122
1128.448644	701.0
1129.006297	691.7999878
1129.563892	696.7999878
1130.12143	693.7999878
1130.678911	697.7999878
1131.236335	697.7999878
1131.793701	697.4000244
1132.351011	698.4000244
1132.908263	697.2000122
1133.465458	695.7999878
1134.022597	697.4000244
1134.579678	697.2000122
1135.136702	697.0
1135.693669	695.5999756
1136.250578	697.2000122
1136.807431	695.5999756
1137.364227	698.0
1137.920965	695.0
1138.477647	697.5999756
1139.034271	696.7999878
1139.590839	696.5999756
1140.147349	696.0
1140.703802	695.4000244
1141.260198	694.4000244
1141.816537	693.4000244
1142.37282	697.7999878
1142.929045	696.0
1143.485213	698.7999878
1144.041323	692.5999756
1144.597377	697.4000244
1145.153374	695.7999878
1145.709314	695.2000122
1146.265197	696.0
1146.821023	695.4000244
1147.376792	695.2000122
1147.932503	693.2000122
1148.488158	696.2000122
1149.043756	701.0
1149.599297	700.4000244
1150.154781	696.7999878
1150.710207	699.7999878
1151.265577	696.0
1151.82089	695.0
1152.376146	695.4000244
1152.931345	693.4000244
1153.486487	698.5999756
1154.041572	698.7999878
1154.5966	698.2000122
1155.151571	695.7999878
1155.706485	695.2000122
1156.261342	698.0
1156.816142	698.4000244
1157.370885	696.5999756
1157.925572	696.7999878
1158.480201	697.4000244
1159.034774	694.7999878
1159.589289	697.4000244
1160.143748	697.0
1160.698149	697.4000244
1161.252494	697.7999878
1161.806782	696.4000244
1162.361013	696.7999878
1162.915187	692.7999878
1163.469304	696.2000122
1164.023364	698.5999756
1164.577368	695.2000122
1165.131314	694.2000122
1165.685204	699.2000122
1166.239036	695.5999756
1166.792812	696.4000244
1167.346531	696.5999756
1167.900193	699.7999878
1168.453798	696.4000244
1169.007347	694.5999756
1169.560838	697.0
1170.114273	696.4000244
1170.66765	697.5999756
1171.220971	695.2000122
1171.774235	697.4000244
1172.327443	693.4000244
1172.880593	694.7999878
1173.433687	694.7999878
1173.986723	694.2000122
1174.539703	695.4000244
1175.092626	691.2000122
1175.645493	696.0
1176.198302	695.4000244
1176.751055	694.4000244
1177.303751	695.5999756
1177.85639	693.2000122
1178.408972	694.4000244
1178.961498	695.5999756
1179.513966	696.5999756
1180.066378	700.0
1180.618733	696.0
1181.171032	692.2000122
1181.723273	697.2000122
1182.275458	694.0
1182.827586	687.4000244
1183.379657	693.2000122
1183.931672	692.5999756
1184.48363	695.5999756
1185.035531	694.2000122
1185.587375	694.4000244
1186.139162	693.5999756
1186.690893	694.4000244
1187.242567	694.2000122
1187.794184	689.4000244
1188.345745	696.2000122
1188.897249	695.2000122
1189.448696	695.5999756
1190.000086	691.7999878
1190.55142	692.2000122
1191.102697	697.0
1191.653918	695.2000122
1192.205081	697.2000122
1192.756188	695.0
1193.307238	709.7999878
1193.858232	692.7999878
1194.409169	696.5999756
1194.960049	693.4000244
1195.510872	694.7999878
1196.061639	695.7999878
1196.612349	693.4000244
1197.163003	699.2000122
1197.713599	692.5999756
1198.264139	691.7999878
1198.814623	696.0
1199.36505	694.5999756
1199.91542	695.0
1200.465734	693.4000244
1201.01599	693.5999756
1201.566191	696.7999878
1202.116334	693.5999756
1202.666421	694.4000244
1203.216452	695.0
1203.766425	692.7999878
1204.316343	701.0
1204.866203	692.5999756
1205.416007	694.0
1205.965754	695.2000122
1206.515445	698.2000122
1207.065079	694.0
1207.614657	689.0
1208.164177	695.7999878
1208.713642	689.2000122
1209.26305	696.2000122
1209.812401	696.0
1210.361695	694.7999878
1210.910933	694.0
1211.460115	693.0
1212.00924	691.5999756
1212.558308	697.0
1213.10732	695.7999878
1213.656275	691.4000244
1214.205174	693.5999756
1214.754016	696.2000122
1215.302801	693.2000122
1215.85153	696.0
1216.400203	696.7999878
1216.948819	697.2000122
1217.497378	693.5999756
1218.045881	696.0
1218.594327	694.7999878
1219.142717	696.0
1219.691051	693.5999756
1220.239327	696.4000244
1220.787548	696.7999878
1221.335712	690.2000122
1221.883819	691.0
1222.43187	696.7999878
1222.979864	693.7999878
1223.527802	695.7999878
1224.075683	696.5999756
1224.623508	693.5999756
1225.171277	694.7999878
1225.718989	695.0
1226.266644	697.7999878
1226.814243	695.0
1227.361786	694.2000122
1227.909272	694.4000244
1228.456702	695.4000244
1229.004075	691.5999756
1229.551392	695.5999756
1230.098652	693.4000244
1230.645856	694.5999756
1231.193003	694.4000244
1231.740094	694.7999878
1232.287129	692.2000122
1232.834107	693.7999878
1233.381029	697.2000122
1233.927894	692.5999756
1234.474703	694.4000244
1235.021455	691.5999756
1235.568151	689.7999878
1236.114791	693.5999756
1236.661374	693.4000244
1237.207901	693.7999878
1237.754372	692.5999756
1238.300786	691.5999756
1238.847144	696.4000244
1239.393445	692.7999878
1239.93969	694.2000122
1240.485879	695.7999878
1241.032011	696.5999756
1241.578087	691.5999756
1242.124106	695.4000244
1242.67007	695.7999878
1243.215976	694.5999756
1243.761827	692.4000244
1244.307621	690.7999878
1244.853359	698.5999756
1245.39904	694.0
1245.944665	696.4000244
1246.490234	694.7999878
1247.035746	692.4000244
1247.581203	696.4000244
1248.126602	693.7999878
1248.671946	696.5999756
1249.217233	696.0
1249.762464	697.0
1250.307638	696.5999756
1250.852757	698.2000122
1251.397819	697.2000122
1251.942824	695.4000244
1252.487774	698.7999878
1253.032667	691.7999878
1253.577503	698.2000122
1254.122284	696.2000122
1254.667008	693.5999756
1255.211676	694.7999878
1255.756288	698.7999878
1256.300843	692.7999878
1256.845342	697.0
1257.389785	695.4000244
1257.934172	695.5999756
1258.478502	695.4000244
1259.022776	697.7999878
1259.566994	700.7999878
1260.111156	708.2000122
1260.655261	696.2000122
1261.199311	692.7999878
1261.743304	697.0
1262.28724	699.2000122
1262.831121	702.5999756
1263.374945	704.7999878
1263.918713	707.2000122
1264.462425	716.5999756
1265.006081	737.2000122
1265.54968	741.7999878
1266.093223	719.4000244
1266.636711	705.7999878
1267.180141	701.7999878
1267.723516	696.0
1268.266835	700.2000122
1268.810097	696.2000122
1269.353303	699.0
1269.896453	694.2000122
1270.439547	697.0
1270.982584	694.4000244
1271.525566	696.0
1272.068491	693.7999878
1272.61136	697.7999878
1273.154173	696.7999878
1273.69693	696.5999756
1274.239631	696.7999878
1274.782275	696.5999756
1275.324864	693.0
1275.867396	698.4000244
1276.409872	696.2000122
1276.952292	696.0
1277.494656	697.2000122
1278.036964	696.2000122
1278.579215	697.5999756
1279.121411	693.7999878
1279.66355	696.0
1280.205634	698.2000122
1280.747661	695.5999756
1281.289632	701.5999756
1281.831547	704.0
1282.373406	701.7999878
1282.915209	709.4000244
1283.456955	720.7999878
1283.998646	741.7999878
1284.540281	831.2000122
1285.081859	1092.199951
1285.623381	1444.599976
1286.164848	1081.800049
1286.706258	792.5999756
1287.247612	731.4000244
1287.788911	709.0
1288.330153	705.4000244
1288.871339	701.5999756
1289.412469	698.7999878
1289.953543	701.4000244
1290.494561	694.5999756
1291.035523	695.2000122
1291.576428	697.5999756
1292.117278	697.2000122
1292.658072	694.5999756
1293.19881	696.5999756
1293.739492	698.7999878
1294.280118	696.4000244
1294.820687	698.5999756
1295.361201	694.4000244
1295.901659	698.5999756
1296.442061	698.5999756
1296.982406	698.2000122
1297.522696	697.2000122
1298.06293	694.2000122
1298.603108	695.7999878
1299.143229	694.5999756
1299.683295	697.0
1300.223305	694.5999756
1300.763259	692.2000122
1301.303157	693.7999878
1301.842999	692.7999878
1302.382785	694.7999878
1302.922515	694.0
1303.462189	692.5999756
1304.001807	696.2000122
1304.541369	693.0
1305.080875	692.7999878
1305.620326	693.7999878
1306.15972	694.7999878
1306.699058	691.2000122
1307.238341	695.2000122
1307.777567	698.2000122
1308.316738	690.4000244
1308.855853	693.2000122
1309.394912	693.4000244
1309.933915	694.2000122
1310.472862	694.0
1311.011753	691.2000122
1311.550588	696.0
1312.089367	693.4000244
1312.62809	696.5999756
1313.166758	691.4000244
1313.70537	697.0
1314.243925	693.0
1314.782425	694.5999756
1315.320869	694.4000244
1315.859257	695.5999756
1316.397589	690.5999756
1316.935866	691.4000244
1317.474086	695.5999756
1318.012251	691.7999878
1318.55036	693.5999756
1319.088413	692.2000122
1319.62641	689.4000244
1320.164351	692.5999756
1320.702236	690.2000122
1321.240066	694.7999878
1321.777839	692.2000122
1322.315557	693.0
1322.853219	691.2000122
1323.390826	690.2000122
1323.928376	696.0
1324.465871	691.4000244
1325.003309	691.0
1325.540692	693.2000122
1326.07802	693.2000122
1326.615291	693.0
1327.152506	695.5999756
1327.689666	691.4000244
1328.22677	692.5999756
1328.763818	692.2000122
1329.300811	693.4000244
1329.837747	690.7999878
1330.374628	695.0
1330.911453	689.2000122
1331.448222	694.0
1331.984936	691.2000122
1332.521594	693.2000122
1333.058196	691.0
1333.594742	693.5999756
1334.131232	688.7999878
1334.667667	690.4000244
1335.204046	693.7999878
1335.740369	692.5999756
1336.276637	692.5999756
1336.812848	691.2000122
1337.349004	691.4000244
1337.885105	691.0
1338.421149	693.5999756
1338.957138	690.2000122
1339.493071	693.0
1340.028949	691.7999878
1340.56477	691.0
1341.100536	690.5999756
1341.636246	688.5999756
1342.171901	690.0
1342.7075	692.2000122
1343.243043	693.0
1343.77853	689.7999878
1344.313962	693.4000244
1344.849338	692.4000244
1345.384659	690.5999756
1345.919923	690.5999756
1346.455133	691.7999878
1346.990286	690.2000122
1347.525384	691.7999878
1348.060426	692.0
1348.595412	688.7999878
1349.130343	689.4000244
1349.665218	692.2000122
1350.200037	694.0
1350.734801	691.2000122
1351.269509	695.4000244
1351.804162	692.2000122
1352.338758	688.5999756
1352.8733	692.7999878
1353.407785	691.7999878
1353.942215	691.2000122
1354.476589	690.7999878
1355.010908	689.7999878
1355.545171	692.4000244
1356.079379	688.7999878
1356.61353	689.2000122
1357.147627	690.7999878
1357.681667	691.0
1358.215652	693.5999756
1358.749582	690.4000244
1359.283456	690.5999756
1359.817274	691.7999878
1360.351037	693.0
1360.884744	691.0
1361.418395	691.0
1361.951991	694.7999878
1362.485531	694.2000122
1363.019016	692.4000244
1363.552445	695.4000244
1364.085819	692.0
1364.619137	690.7999878
1365.1524	693.5999756
1365.685607	692.2000122
1366.218758	695.4000244
1366.751854	693.2000122
1367.284894	691.2000122
1367.817879	697.0
1368.350808	693.2000122
1368.883682	693.4000244
1369.4165	690.4000244
1369.949263	693.4000244
1370.48197	711.7999878
1371.014622	700.5999756
1371.547218	693.7999878
1372.079758	693.5999756
1372.612244	691.2000122
1373.144673	694.2000122
1373.677047	694.7999878
1374.209366	688.5999756
1374.741629	689.7999878
1375.273836	692.7999878
1375.805989	689.4000244
1376.338085	689.0
1376.870126	690.4000244
1377.402112	695.4000244
1377.934042	693.7999878
1378.465917	692.4000244
1378.997736	694.0
1379.5295	693.0
1380.061208	690.7999878
1380.592861	690.5999756
1381.124459	694.5999756
1381.656	696.7999878
1382.187487	695.4000244
1382.718918	692.2000122
1383.250294	694.5999756
1383.781614	698.2000122
1384.312879	695.5999756
1384.844088	701.5999756
1385.375242	704.7999878
1385.90634	708.7999878
1386.437383	716.2000122
1386.968371	728.0
1387.499303	769.0
1388.03018	920.7999878
1388.561001	1614.400024
1389.091767	1939.800049
1389.622478	1047.599976
1390.153133	775.4000244
1390.683733	725.4000244
1391.214277	709.2000122
1391.744766	706.7999878
1392.2752	704.7999878
1392.805578	699.0
1393.335901	700.7999878
1393.866168	694.2000122
1394.396381	700.2000122
1394.926537	692.4000244
1395.456639	692.0
1395.986685	692.4000244
1396.516675	691.4000244
1397.046611	690.5999756
1397.576491	691.5999756
1398.106315	695.2000122
1398.636084	693.4000244
1399.165798	694.7999878
1399.695457	691.7999878
1400.22506	692.4000244
1400.754608	691.5999756
1401.284101	690.0
1401.813538	690.5999756
1402.34292	690.5999756
1402.872247	692.5999756
1403.401518	693.5999756
1403.930734	688.0
1404.459895	693.7999878
1404.989	691.5999756
1405.51805	695.7999878
1406.047045	692.0
1406.575984	694.4000244
1407.104869	694.7999878
1407.633697	695.4000244
1408.162471	699.4000244
1408.691189	703.5999756
1409.219852	717.0
1409.74846	744.7999878
1410.277013	784.5999756
1410.80551	749.4000244
1411.333952	712.7999878
1411.862339	699.0
1412.39067	693.7999878
1412.918946	691.7999878
1413.447167	693.0
1413.975333	690.7999878
1414.503444	689.0
1415.031499	691.7999878
1415.559499	699.7999878
1416.087444	690.0
1416.615333	689.5999756
1417.143167	685.4000244
1417.670947	689.7999878
1418.19867	691.0
1418.726339	690.2000122
1419.253952	693.2000122
1419.781511	688.2000122
1420.309014	688.2000122
1420.836461	692.0
1421.363854	691.4000244
1421.891191	687.7999878
1422.418474	689.7999878
1422.945701	688.4000244
1423.472872	690.2000122
1423.999989	690.7999878
1424.52705	692.5999756
1425.054057	692.0
1425.581008	691.5999756
1426.107904	688.7999878
1426.634745	693.4000244
1427.16153	689.7999878
1427.688261	690.7999878
1428.214936	690.2000122
1428.741556	687.7999878
1429.268121	687.7999878
1429.794631	687.4000244
1430.321085	687.0
1430.847485	689.5999756
1431.373829	686.5999756
1431.900118	690.2000122
1432.426353	688.4000244
1432.952532	687.2000122
1433.478655	685.5999756
1434.004724	690.4000244
1434.530738	689.4000244
1435.056696	688.4000244
1435.5826	686.5999756
1436.108448	687.4000244
1436.634241	685.5999756
1437.159979	687.2000122
1437.685662	689.5999756
1438.21129	688.2000122
1438.736863	689.4000244
1439.262381	687.0
1439.787843	687.2000122
1440.313251	687.4000244
1440.838603	686.7999878
1441.3639	683.7999878
1441.889143	689.0
1442.41433	685.2000122
1442.939462	686.5999756
1443.464539	688.4000244
1443.989561	689.5999756
1444.514528	689.4000244
1445.03944	686.4000244
1445.564297	689.5999756
1446.089099	689.4000244
1446.613846	686.2000122
1447.138537	685.5999756
1447.663174	688.2000122
1448.187756	689.5999756
1448.712282	688.4000244
1449.236754	685.2000122
1449.761171	681.7999878
1450.285532	688.2000122
1450.809839	687.2000122
1451.33409	689.4000244
1451.858287	686.4000244
1452.382428	685.4000244
1452.906515	688.2000122
1453.430546	687.2000122
1453.954523	688.4000244
1454.478444	687.0
1455.002311	687.2000122
1455.526123	683.5999756
1456.049879	684.4000244
1456.573581	684.0
1457.097227	687.4000244
1457.620819	686.2000122
1458.144356	688.4000244
1458.667837	679.2000122
1459.191264	686.4000244
1459.714636	689.7999878
1460.237952	686.0
1460.761214	685.2000122
1461.284421	688.4000244
1461.807573	683.4000244
1462.33067	685.4000244
1462.853712	691.2000122
1463.376699	686.0
1463.899632	686.4000244
1464.422509	688.4000244
1464.945331	686.5999756
1465.468099	687.0
1465.990811	685.0
1466.513469	683.0
1467.036071	683.4000244
1467.558619	682.0
1468.081112	685.7999878
1468.60355	687.4000244
1469.125933	688.2000122
1469.648261	688.0
1470.170534	690.0
1470.692752	685.7999878
1471.214916	687.2000122
1471.737024	683.5999756
1472.259078	687.4000244
1472.781077	686.4000244
1473.303021	683.4000244
1473.82491	685.4000244
1474.346744	685.0
1474.868523	683.0
1475.390248	682.5999756
1475.911917	687.7999878
1476.433532	688.7999878
1476.955092	686.4000244
1477.476597	683.4000244
1477.998047	684.4000244
1478.519442	685.0
1479.040783	685.5999756
1479.562068	683.5999756
1480.083299	686.7999878
1480.604475	679.7999878
1481.125596	686.5999756
1481.646663	685.2000122
1482.167674	687.7999878
1482.688631	683.2000122
1483.209533	684.0
1483.73038	687.0
1484.251172	685.4000244
1484.771909	687.2000122
1485.292592	682.0
1485.81322	681.4000244
1486.333793	684.7999878
1486.854311	682.4000244
1487.374775	686.0
1487.895183	687.4000244
1488.415537	682.7999878
1488.935836	683.7999878
1489.456081	684.2000122
1489.97627	684.0
1490.496405	683.0
1491.016485	685.0
1491.536511	683.5999756
1492.056481	680.5999756
1492.576397	684.0
1493.096258	685.4000244
1493.616064	681.4000244
1494.135816	683.7999878
1494.655513	683.2000122
1495.175155	683.7999878
1495.694742	683.7999878
1496.214274	684.5999756
1496.733752	687.7999878
1497.253175	684.5999756
1497.772544	686.2000122
1498.291858	684.5999756
1498.811116	685.4000244
1499.330321	682.5999756
1499.84947	690.2000122
1500.368565	683.4000244
1500.887605	683.4000244
1501.406591	683.7999878
1501.925521	682.4000244
1502.444397	682.2000122
1502.963219	683.2000122
1503.481985	685.2000122
1504.000697	688.0
1504.519355	687.2000122
1505.037957	683.4000244
1505.556505	685.0
1506.074999	687.4000244
1506.593437	682.4000244
1507.111821	681.4000244
1507.63015	686.2000122
1508.148425	687.0
1508.666645	682.7999878
1509.18481	679.4000244
1509.702921	682.7999878
1510.220977	684.4000244
1510.738979	691.4000244
1511.256925	680.2000122
1511.774817	685.7999878
1512.292655	684.4000244
1512.810438	682.0
1513.328166	684.0
1513.84584	685.0
1514.363459	682.7999878
1514.881023	687.2000122
1515.398533	682.4000244
1515.915988	683.7999878
1516.433389	685.2000122
1516.950734	686.2000122
1517.468026	684.4000244
1517.985263	682.7999878
1518.502445	682.0
1519.019572	681.0
1519.536645	685.4000244
1520.053664	684.4000244
1520.570628	681.7999878
1521.087537	681.0
1521.604392	683.7999878
1522.121192	682.7999878
1522.637937	684.2000122
1523.154628	685.2000122
1523.671265	683.2000122
1524.187847	684.0
1524.704374	683.5999756
1525.220847	682.4000244
1525.737265	684.0
1526.253629	689.4000244
1526.769938	683.5999756
1527.286192	681.5999756
1527.802392	686.0
1528.318538	683.0
1528.834629	683.7999878
1529.350666	680.5999756
1529.866648	688.4000244
1530.382575	679.2000122
1530.898448	681.2000122
1531.414266	688.0
1531.93003	685.2000122
1532.44574	683.4000244
1532.961395	682.5999756
1533.476995	686.2000122
1533.992541	683.5999756
1534.508033	679.4000244
1535.02347	683.7999878
1535.538852	684.4000244
1536.05418	685.0
1536.569454	679.5999756
1537.084673	683.2000122
1537.599837	684.0
1538.630003	700.7999878
1539.145004	681.5999756
1539.659951	682.0
1540.174843	683.5999756
1540.689681	679.4000244
1541.204465	685.0
1541.719194	683.7999878
1542.233868	686.0
1542.748488	685.5999756
1543.263054	684.2000122
1543.777565	680.2000122
1544.292022	682.2000122
1544.806424	684.2000122
1545.320772	681.0
1545.835066	682.4000244
1546.349305	684.2000122
1546.863489	683.7999878
1547.37762	683.4000244
1547.891696	679.7999878
1548.405717	685.2000122
1548.919684	683.2000122
1549.433597	681.7999878
1549.947455	682.2000122
1550.461259	683.7999878
1550.975009	681.5999756
1551.488704	684.5999756
1552.002345	682.7999878
1552.515931	684.0
1553.029463	682.2000122
1553.542941	682.4000244
1554.056364	679.5999756
1554.569733	684.7999878
1555.083048	681.5999756
1555.596308	683.0
1556.109514	684.4000244
1556.622665	685.5999756
1557.135762	685.2000122
1557.648805	684.0
1558.161794	683.7999878
1558.674728	687.5999756
1559.187608	680.0
1559.700433	686.2000122
1560.213205	683.5999756
1560.725921	685.7999878
1561.238584	680.0
1561.751192	684.4000244
1562.263746	684.7999878
1562.776246	683.4000244
1563.288691	680.2000122
1563.801082	683.4000244
1564.313419	683.5999756
1564.825701	684.2000122
1565.337929	686.0
1565.850103	682.7999878
1566.362223	684.0
1566.874288	682.4000244
1567.386299	681.5999756
1567.898256	682.7999878
1568.410158	684.0
1568.922007	683.2000122
1569.4338	685.5999756
1569.94554	683.4000244
1570.457226	682.2000122
1570.968857	681.2000122
1571.480434	683.4000244
1571.991956	684.4000244
1572.503425	679.0
1573.014839	682.7999878
1573.526199	682.5999756
1574.037505	680.0
1574.548756	685.2000122
1575.059953	683.4000244
1575.571096	684.0
1576.082185	684.2000122
1576.59322	684.5999756
1577.1042	683.2000122
1577.615126	680.2000122
1578.125998	681.5999756
1578.636816	684.2000122
1579.14758	682.0
1579.658289	683.7999878
1580.168944	683.5999756
1580.679545	686.5999756
1581.190092	681.7999878
1581.700585	684.7999878
1582.211023	682.7999878
1582.721407	683.5999756
1583.231737	684.4000244
1583.742013	681.5999756
1584.252235	680.0
1584.762403	681.2000122
1585.272516	684.4000244
1585.782575	681.5999756
1586.292581	679.7999878
1586.802532	682.2000122
1587.312428	681.2000122
1587.822271	681.2000122
1588.33206	683.4000244
1588.841794	682.0
1589.351474	683.0
1589.8611	684.5999756
1590.370672	683.4000244
1590.88019	682.5999756
1591.389654	679.7999878
1591.899064	680.5999756
1592.408419	681.4000244
