1042.452273	2699.199951
1043.018714	2695.600098
1043.585098	2686.199951
1044.151424	2708.0
1044.717692	2697.399902
1045.283903	2705.800049
1045.850056	2711.199951
1046.416151	2708.800049
1046.982188	2694.600098
1047.548167	2734.399902
1048.114089	2722.399902
1048.679953	2718.199951
1049.24576	2718.800049
1049.811509	2708.399902
1050.3772	2707.0
1050.942833	2748.199951
1051.508408	2734.0
1052.073926	2732.0
1052.639387	2752.399902
1053.204789	2768.199951
1053.770134	2752.199951
1054.335421	2763.0
1054.900651	2741.399902
1055.465823	2733.800049
1056.030937	2780.800049
1056.595993	2750.399902
1057.160992	2746.199951
1057.725934	2775.399902
1058.290817	2768.600098
1058.855643	2759.600098
1059.420411	2773.600098
1059.985122	2765.0
1060.549775	2761.199951
1061.114371	2788.600098
1061.678908	2761.0
1062.243389	2769.600098
1062.807811	2770.800049
1063.372176	2768.399902
1063.936483	2772.600098
1064.500733	2776.199951
1065.064925	2784.800049
1065.62906	2800.800049
1066.193137	2804.0
1066.757156	2806.199951
1067.321118	2823.600098
1067.885022	2771.600098
1068.448869	2794.600098
1069.012658	2768.800049
1069.57639	2802.600098
1070.140063	2799.0
1070.70368	2802.800049
1071.267239	2825.0
1071.83074	2818.0
1072.394184	2809.399902
1072.95757	2806.800049
1073.520899	2803.399902
1074.08417	2832.199951
1074.647383	2799.399902
1075.21054	2820.0
1075.773638	2827.399902
1076.336679	2868.199951
1076.899663	2806.399902
1077.462589	2835.600098
1078.025457	2807.600098
1078.588268	2835.800049
1079.151022	2847.0
1079.713718	2830.0
1080.276356	2821.800049
1080.838937	2869.0
1081.401461	2828.199951
1081.963927	2867.199951
1082.526336	2821.600098
1083.088687	2841.0
1083.650981	2841.800049
1084.213217	2851.399902
1084.775396	2834.199951
1085.337517	2859.600098
1085.899581	2846.399902
1086.461587	2856.399902
1087.023536	2831.800049
1087.585428	2850.199951
1088.147262	2868.800049
1088.709039	2869.800049
1089.270758	2872.399902
1089.83242	2846.199951
1090.394024	2858.800049
1090.955571	2881.0
1091.517061	2846.600098
1092.078493	2888.600098
1092.639868	2844.600098
1093.201185	2881.0
1093.762445	2869.800049
1094.323648	2864.199951
1094.884793	2850.600098
1095.445881	2882.800049
1096.006911	2848.0
1096.567884	2901.800049
1097.1288	2863.600098
1097.689659	2906.800049
1098.25046	2885.199951
1098.811203	2900.800049
1099.37189	2855.0
1099.932518	2909.399902
1100.49309	2899.600098
1101.053604	2912.199951
1101.614061	2894.0
1102.174461	2891.0
1102.734803	2860.0
1103.295088	2898.800049
1103.855316	2862.399902
1104.415486	2916.800049
1104.975599	2869.800049
1105.535655	2889.600098
1106.095653	2883.199951
1106.655594	2897.0
1107.215478	2875.199951
1107.775305	2943.0
1108.335074	2889.600098
1108.894786	2867.600098
1109.45444	2866.600098
1110.014038	2925.600098
1110.573578	2889.199951
1111.133061	2914.800049
1111.692486	2899.0
1112.251854	2920.199951
1112.811165	2885.800049
1113.370419	2922.600098
1113.929616	2877.600098
1114.488755	2956.600098
1115.047837	2897.399902
1115.606862	2924.0
1116.16583	2930.800049
1116.72474	2923.199951
1117.283593	2895.600098
1117.842389	2931.800049
1118.401128	2899.399902
1118.959809	2946.399902
1119.518433	2931.399902
1120.077	2951.600098
1120.63551	2921.0
1121.193963	2937.399902
1121.752358	2931.800049
1122.310697	2939.600098
1122.868978	2939.199951
1123.427202	2948.199951
1123.985368	2934.199951
1124.543478	2951.800049
1125.10153	2934.399902
1125.659526	2968.600098
1126.217464	2975.800049
1126.775345	2961.199951
1127.333168	2961.399902
1127.890935	2989.800049
1128.448644	2954.199951
1129.006297	2991.0
1129.563892	2980.600098
1130.12143	2952.0
1130.678911	2984.800049
1131.236335	3001.399902
1131.793701	2964.399902
1132.351011	2984.600098
1132.908263	2980.199951
1133.465458	2987.399902
1134.022597	2997.0
1134.579678	2989.399902
1135.136702	2993.199951
1135.693669	3003.199951
1136.250578	3002.600098
1136.807431	3019.399902
1137.364227	3015.399902
1137.920965	3016.0
1138.477647	3018.199951
1139.034271	3004.0
1139.590839	3006.600098
1140.147349	3010.800049
1140.703802	3020.800049
1141.260198	3036.399902
1141.816537	3026.0
1142.37282	3024.399902
1142.929045	3037.199951
1143.485213	3055.199951
1144.041323	3029.399902
1144.597377	3041.199951
1145.153374	3046.600098
1145.709314	3042.600098
1146.265197	3059.800049
1146.821023	3051.800049
1147.376792	3082.199951
1147.932503	3065.800049
1148.488158	3083.600098
1149.043756	3108.600098
1149.599297	3095.800049
1150.154781	3076.800049
1150.710207	3104.199951
1151.265577	3081.199951
1151.82089	3116.800049
1152.376146	3125.600098
1152.931345	3102.800049
1153.486487	3054.600098
1154.041572	3093.399902
1154.5966	3091.600098
1155.151571	3103.0
1155.706485	3126.399902
1156.261342	3131.399902
1156.816142	3116.399902
1157.370885	3120.399902
1157.925572	3129.0
1158.480201	3145.399902
1159.034774	3130.199951
1159.589289	3107.199951
1160.143748	3131.399902
1160.698149	3148.0
1161.252494	3117.0
1161.806782	3171.800049
1162.361013	3180.399902
1162.915187	3151.800049
1163.469304	3140.600098
1164.023364	3174.0
1164.577368	3132.199951
1165.131314	3196.0
1165.685204	3142.199951
1166.239036	3187.800049
1166.792812	3144.800049
1167.346531	3189.800049
1167.900193	3171.199951
1168.453798	3181.399902
1169.007347	3167.0
1169.560838	3178.0
1170.114273	3185.600098
1170.66765	3203.600098
1171.220971	3166.199951
1171.774235	3189.0
1172.327443	3192.800049
1172.880593	3233.0
1173.433687	3202.0
1173.986723	3222.600098
1174.539703	3195.600098
1175.092626	3218.399902
1175.645493	3226.0
1176.198302	3210.399902
1176.751055	3210.0
1177.303751	3242.800049
1177.85639	3235.399902
1178.408972	3217.800049
1178.961498	3240.0
1179.513966	3222.600098
1180.066378	3224.199951
1180.618733	3226.399902
1181.171032	3255.199951
1181.723273	3257.199951
1182.275458	3254.0
1182.827586	3241.0
1183.379657	3241.199951
1183.931672	3255.199951
1184.48363	3280.800049
1185.035531	3274.600098
1185.587375	3285.0
1186.139162	3262.0
1186.690893	3245.0
1187.242567	3256.600098
1187.794184	3294.600098
1188.345745	3258.800049
1188.897249	3302.0
1189.448696	3272.199951
1190.000086	3306.600098
1190.55142	3283.800049
1191.102697	3311.800049
1191.653918	3274.0
1192.205081	3281.399902
1192.756188	3273.399902
1193.307238	3330.0
1193.858232	3281.199951
1194.409169	3299.600098
1194.960049	3283.399902
1195.510872	3315.399902
1196.061639	3306.800049
1196.612349	3317.600098
1197.163003	3324.199951
1197.713599	3311.600098
1198.264139	3332.0
1198.814623	3315.399902
1199.36505	3341.399902
1199.91542	3323.199951
1200.465734	3361.0
1201.01599	3359.199951
1201.566191	3335.399902
1202.116334	3356.800049
1202.666421	3369.0
1203.216452	3369.800049
1203.766425	3333.0
1204.316343	3358.0
1204.866203	3367.600098
1205.416007	3346.0
1205.965754	3351.600098
1206.515445	3378.800049
1207.065079	3331.800049
1207.614657	3361.600098
1208.164177	3376.600098
1208.713642	3361.399902
1209.26305	3390.0
1209.812401	3382.0
1210.361695	3372.199951
1210.910933	3375.399902
1211.460115	3382.399902
1212.00924	3368.399902
1212.558308	3378.399902
1213.10732	3390.600098
1213.656275	3399.0
1214.205174	3416.0
1214.754016	3384.600098
1215.302801	3413.199951
1215.85153	3399.399902
1216.400203	3399.399902
1216.948819	3405.600098
1217.497378	3403.399902
1218.045881	3413.0
1218.594327	3441.0
1219.142717	3413.800049
1219.691051	3429.399902
1220.239327	3421.199951
1220.787548	3411.600098
1221.335712	3438.600098
1221.883819	3413.600098
1222.43187	3442.600098
1222.979864	3412.800049
1223.527802	3442.800049
1224.075683	3419.0
1224.623508	3442.399902
1225.171277	3467.0
1225.718989	3458.600098
1226.266644	3440.600098
1226.814243	3434.0
1227.361786	3450.199951
1227.909272	3499.0
1228.456702	3477.199951
1229.004075	3452.600098
1229.551392	3454.600098
1230.098652	3487.199951
1230.645856	3483.399902
1231.193003	3485.600098
1231.740094	3488.800049
1232.287129	3482.199951
1232.834107	3481.800049
1233.381029	3512.0
1233.927894	3460.199951
1234.474703	3523.399902
1235.021455	3496.0
1235.568151	3499.0
1236.114791	3485.800049
1236.661374	3525.0
1237.207901	3493.600098
1237.754372	3514.0
1238.300786	3508.0
1238.847144	3528.600098
1239.393445	3507.800049
1239.93969	3513.600098
1240.485879	3512.399902
1241.032011	3532.800049
1241.578087	3537.0
1242.124106	3531.0
1242.67007	3527.800049
1243.215976	3554.0
1243.761827	3561.0
1244.307621	3542.0
1244.853359	3546.199951
1245.39904	3575.199951
1245.944665	3580.0
1246.490234	3551.399902
1247.035746	3578.600098
1247.581203	3568.199951
1248.126602	3587.800049
1248.671946	3541.800049
1249.217233	3569.0
1249.762464	3561.800049
1250.307638	3584.800049
1250.852757	3583.0
1251.397819	3573.0
1251.942824	3565.600098
1252.487774	3598.600098
1253.032667	3603.800049
1253.577503	3614.199951
1254.122284	3583.199951
1254.667008	3603.199951
1255.211676	3601.600098
1255.756288	3583.600098
1256.300843	3613.399902
1256.845342	3595.600098
1257.389785	3631.399902
1257.934172	3626.399902
1258.478502	3633.0
1259.022776	3629.0
1259.566994	3640.399902
1260.111156	3621.600098
1260.655261	3632.199951
1261.199311	3638.0
1261.743304	3640.399902
1262.28724	3628.600098
1262.831121	3664.199951
1263.374945	3625.600098
1263.918713	3641.399902
1264.462425	3682.600098
1265.006081	3723.399902
1265.54968	3741.800049
1266.093223	3715.199951
1266.636711	3721.0
1267.180141	3684.600098
1267.723516	3673.600098
1268.266835	3687.199951
1268.810097	3702.399902
1269.353303	3674.600098
1269.896453	3679.199951
1270.439547	3671.199951
1270.982584	3674.800049
1271.525566	3685.399902
1272.068491	3674.600098
1272.61136	3716.600098
1273.154173	3706.800049
1273.69693	3700.0
1274.239631	3718.800049
1274.782275	3685.199951
1275.324864	3734.0
1275.867396	3729.800049
1276.409872	3708.600098
1276.952292	3675.600098
1277.494656	3725.600098
1278.036964	3698.800049
1278.579215	3737.199951
1279.121411	3749.0
1279.66355	3760.399902
1280.205634	3735.0
1280.747661	3740.800049
1281.289632	3744.399902
1281.831547	3743.199951
1282.373406	3762.800049
1282.915209	3760.600098
1283.456955	3783.600098
1283.998646	3812.600098
1284.540281	3951.399902
1285.081859	4441.399902
1285.623381	5335.799805
1286.164848	4784.200195
1286.706258	4014.0
1287.247612	3860.199951
1287.788911	3805.199951
1288.330153	3806.399902
1288.871339	3764.600098
1289.412469	3762.600098
1289.953543	3772.199951
1290.494561	3769.0
1291.035523	3795.0
1291.576428	3781.600098
1292.117278	3785.800049
1292.658072	3767.399902
1293.19881	3788.600098
1293.739492	3766.600098
1294.280118	3815.800049
1294.820687	3782.800049
1295.361201	3805.800049
1295.901659	3777.0
1296.442061	3798.800049
1296.982406	3753.600098
1297.522696	3806.0
1298.06293	3772.0
1298.603108	3799.800049
1299.143229	3784.399902
1299.683295	3809.600098
1300.223305	3777.600098
1300.763259	3807.199951
1301.303157	3777.800049
1301.842999	3805.800049
1302.382785	3833.399902
1302.922515	3799.399902
1303.462189	3823.600098
1304.001807	3842.600098
1304.541369	3830.800049
1305.080875	3816.600098
1305.620326	3842.199951
1306.15972	3808.399902
1306.699058	3833.399902
1307.238341	3831.800049
1307.777567	3846.399902
1308.316738	3803.600098
1308.855853	3861.800049
1309.394912	3814.399902
1309.933915	3827.399902
1310.472862	3846.0
1311.011753	3835.600098
1311.550588	3856.600098
1312.089367	3846.199951
1312.62809	3851.399902
1313.166758	3867.800049
1313.70537	3845.600098
1314.243925	3879.199951
1314.782425	3835.600098
1315.320869	3863.0
1315.859257	3854.800049
1316.397589	3866.399902
1316.935866	3846.199951
1317.474086	3821.600098
1318.012251	3863.0
1318.55036	3865.800049
1319.088413	3923.600098
1319.62641	3826.600098
1320.164351	3873.199951
1320.702236	3828.800049
1321.240066	3874.199951
1321.777839	3881.199951
1322.315557	3896.800049
1322.853219	3840.399902
1323.390826	3911.600098
1323.928376	3877.0
1324.465871	3893.199951
1325.003309	3874.399902
1325.540692	3905.199951
1326.07802	3904.800049
1326.615291	3895.600098
1327.152506	3911.0
1327.689666	3893.199951
1328.22677	3886.199951
1328.763818	3888.600098
1329.300811	3912.399902
1329.837747	3923.399902
1330.374628	3892.399902
1330.911453	3885.600098
1331.448222	3919.399902
1331.984936	3897.600098
1332.521594	3896.800049
1333.058196	3885.399902
1333.594742	3934.0
1334.131232	3886.0
1334.667667	3911.399902
1335.204046	3889.199951
1335.740369	3918.199951
1336.276637	3921.199951
1336.812848	3916.399902
1337.349004	3960.0
1337.885105	3932.600098
1338.421149	3922.399902
1338.957138	3928.199951
1339.493071	3940.0
1340.028949	3928.399902
1340.56477	3933.600098
1341.100536	3925.199951
1341.636246	3935.399902
1342.171901	3897.800049
1342.7075	3929.399902
1343.243043	3933.800049
1343.77853	3985.199951
1344.313962	3897.199951
1344.849338	3969.800049
1345.384659	3923.199951
1345.919923	3953.399902
1346.455133	3946.0
1346.990286	3938.600098
1347.525384	3980.600098
1348.060426	3946.0
1348.595412	3934.800049
1349.130343	3939.600098
1349.665218	3944.0
1350.200037	3969.0
1350.734801	3978.0
1351.269509	3956.600098
1351.804162	3995.800049
1352.338758	3918.399902
1352.8733	3976.800049
1353.407785	3973.800049
1353.942215	3979.399902
1354.476589	3952.600098
1355.010908	3992.199951
1355.545171	3982.0
1356.079379	4002.600098
1356.61353	3971.0
1357.147627	3987.600098
1357.681667	3974.600098
1358.215652	3995.800049
1358.749582	4017.800049
1359.283456	3965.800049
1359.817274	3997.600098
1360.351037	3988.0
1360.884744	3969.0
1361.418395	3969.800049
1361.951991	3980.600098
1362.485531	3971.800049
1363.019016	4014.199951
1363.552445	3971.199951
1364.085819	4017.0
1364.619137	3957.600098
1365.1524	3993.600098
1365.685607	3981.199951
1366.218758	4018.199951
1366.751854	3995.800049
1367.284894	3999.800049
1367.817879	3993.800049
1368.350808	4009.600098
1368.883682	3989.0
1369.4165	4028.800049
1369.949263	4024.0
1370.48197	4029.399902
1371.014622	4024.600098
1371.547218	3988.399902
1372.079758	4072.199951
1372.612244	3993.800049
1373.144673	4057.800049
1373.677047	3995.600098
1374.209366	4026.399902
1374.741629	4010.800049
1375.273836	4038.600098
1375.805989	4014.199951
1376.338085	4041.399902
1376.870126	4013.800049
1377.402112	4035.600098
1377.934042	4019.199951
1378.465917	4022.399902
1378.997736	4017.800049
1379.5295	4007.399902
1380.061208	4026.600098
1380.592861	4028.399902
1381.124459	4050.199951
1381.656	4048.0
1382.187487	4033.0
1382.718918	4010.199951
1383.250294	4043.600098
1383.781614	4019.0
1384.312879	4057.199951
1384.844088	4064.800049
1385.375242	4067.600098
1385.90634	4059.800049
1386.437383	4095.199951
1386.968371	4102.799805
1387.499303	4192.799805
1388.03018	4409.200195
1388.561001	5679.600098
1389.091767	6899.200195
1389.622478	4927.399902
1390.153133	4260.399902
1390.683733	4103.0
1391.214277	4096.399902
1391.744766	4090.800049
1392.2752	4072.0
1392.805578	4048.600098
1393.335901	4062.600098
1393.866168	4067.0
1394.396381	4063.399902
1394.926537	4080.800049
1395.456639	4114.799805
1395.986685	4043.399902
1396.516675	4018.399902
1397.046611	4046.800049
1397.576491	4077.800049
1398.106315	4075.199951
1398.636084	4067.600098
1399.165798	4078.600098
1399.695457	4063.199951
1400.22506	4109.799805
1400.754608	4058.0
1401.284101	4102.0
1401.813538	4071.800049
1402.34292	4080.399902
1402.872247	4088.600098
1403.401518	4098.0
1403.930734	4103.0
1404.459895	4089.399902
1404.989	4084.600098
1405.51805	4112.200195
1406.047045	4085.0
1406.575984	4084.600098
1407.104869	4120.200195
1407.633697	4099.399902
1408.162471	4099.799805
1408.691189	4115.399902
1409.219852	4198.0
1409.74846	4185.799805
1410.277013	4343.399902
1410.80551	4239.600098
1411.333952	4115.0
1411.862339	4097.600098
1412.39067	4135.0
1412.918946	4112.799805
1413.447167	4131.799805
1413.975333	4112.799805
1414.503444	4083.800049
1415.031499	4122.399902
1415.559499	4147.200195
1416.087444	4130.399902
1416.615333	4093.399902
1417.143167	4144.0
1417.670947	4096.200195
1418.19867	4124.0
1418.726339	4096.0
1419.253952	4122.799805
1419.781511	4133.600098
1420.309014	4141.600098
1420.836461	4117.0
1421.363854	4126.399902
1421.891191	4148.799805
1422.418474	4116.200195
1422.945701	4133.200195
1423.472872	4144.600098
1423.999989	4155.600098
1424.52705	4165.799805
1425.054057	4130.200195
1425.581008	4122.600098
1426.107904	4153.600098
1426.634745	4149.200195
1427.16153	4136.399902
1427.688261	4128.0
1428.214936	4156.399902
1428.741556	4180.600098
1429.268121	4138.0
1429.794631	4141.200195
1430.321085	4142.799805
1430.847485	4161.600098
1431.373829	4140.399902
1431.900118	4159.399902
1432.426353	4100.799805
1432.952532	4159.0
1433.478655	4142.600098
1434.004724	4166.799805
1434.530738	4112.600098
1435.056696	4131.200195
1435.5826	4115.0
1436.108448	4163.799805
1436.634241	4152.600098
1437.159979	4128.399902
1437.685662	4126.399902
1438.21129	4139.600098
1438.736863	4125.0
1439.262381	4135.799805
1439.787843	4173.0
1440.313251	4157.200195
1440.838603	4141.799805
1441.3639	4145.399902
1441.889143	4173.600098
1442.41433	4140.600098
1442.939462	4135.600098
1443.464539	4142.0
1443.989561	4148.0
1444.514528	4126.799805
1445.03944	4126.0
1445.564297	4162.0
1446.089099	4172.799805
1446.613846	4146.600098
1447.138537	4159.0
1447.663174	4154.600098
1448.187756	4175.200195
1448.712282	4171.600098
1449.236754	4161.399902
1449.761171	4142.799805
1450.285532	4171.600098
1450.809839	4187.600098
1451.33409	4178.200195
1451.858287	4164.0
1452.382428	4166.799805
1452.906515	4144.0
1453.430546	4148.799805
1453.954523	4170.399902
1454.478444	4155.200195
1455.002311	4160.200195
1455.526123	4190.0
1456.049879	4169.399902
1456.573581	4194.0
1457.097227	4173.399902
1457.620819	4161.799805
1458.144356	4169.0
1458.667837	4209.399902
1459.191264	4154.200195
1459.714636	4152.399902
1460.237952	4182.0
1460.761214	4185.399902
1461.284421	4176.399902
1461.807573	4189.0
1462.33067	4175.0
1462.853712	4196.799805
1463.376699	4174.200195
1463.899632	4188.0
1464.422509	4175.399902
1464.945331	4180.600098
1465.468099	4225.0
1465.990811	4185.0
1466.513469	4196.799805
1467.036071	4193.799805
1467.558619	4188.200195
1468.081112	4166.600098
1468.60355	4213.200195
1469.125933	4178.799805
1469.648261	4201.799805
1470.170534	4207.0
1470.692752	4182.799805
1471.214916	4192.200195
1471.737024	4191.200195
1472.259078	4163.799805
1472.781077	4182.399902
1473.303021	4193.799805
1473.82491	4189.200195
1474.346744	4217.799805
1474.868523	4189.200195
1475.390248	4192.399902
1475.911917	4191.600098
1476.433532	4227.0
1476.955092	4184.600098
1477.476597	4183.0
1477.998047	4179.799805
1478.519442	4165.200195
1479.040783	4195.799805
1479.562068	4192.200195
1480.083299	4194.0
1480.604475	4171.0
1481.125596	4198.799805
1481.646663	4179.399902
1482.167674	4170.600098
1482.688631	4209.799805
1483.209533	4187.200195
1483.73038	4180.399902
1484.251172	4210.0
1484.771909	4194.600098
1485.292592	4211.600098
1485.81322	4214.0
1486.333793	4183.0
1486.854311	4197.200195
1487.374775	4193.0
1487.895183	4197.799805
1488.415537	4198.0
1488.935836	4195.200195
1489.456081	4189.600098
1489.97627	4235.200195
1490.496405	4197.0
1491.016485	4193.799805
1491.536511	4191.0
1492.056481	4192.0
1492.576397	4219.799805
1493.096258	4207.200195
1493.616064	4235.799805
1494.135816	4204.399902
1494.655513	4207.399902
1495.175155	4211.600098
1495.694742	4203.399902
1496.214274	4207.799805
1496.733752	4188.399902
1497.253175	4207.0
1497.772544	4236.200195
1498.291858	4193.399902
1498.811116	4236.0
1499.330321	4233.799805
1499.84947	4221.399902
1500.368565	4229.200195
1500.887605	4238.600098
1501.406591	4210.600098
1501.925521	4184.799805
1502.444397	4192.0
1502.963219	4212.600098
1503.481985	4210.600098
1504.000697	4203.600098
1504.519355	4244.799805
1505.037957	4223.200195
1505.556505	4218.200195
1506.074999	4235.200195
1506.593437	4216.200195
1507.111821	4240.200195
1507.63015	4236.600098
1508.148425	4230.0
1508.666645	4225.0
1509.18481	4201.600098
1509.702921	4199.799805
1510.220977	4190.799805
1510.738979	4217.399902
1511.256925	4215.200195
1511.774817	4198.399902
1512.292655	4249.200195
1512.810438	4195.600098
1513.328166	4210.799805
1513.84584	4207.200195
1514.363459	4246.200195
1514.881023	4226.0
1515.398533	4239.600098
1515.915988	4238.600098
1516.433389	4252.200195
1516.950734	4234.600098
1517.468026	4208.600098
1517.985263	4226.799805
1518.502445	4230.0
1519.019572	4243.399902
1519.536645	4224.200195
1520.053664	4202.0
1520.570628	4241.399902
1521.087537	4223.399902
1521.604392	4226.0
1522.121192	4207.0
1522.637937	4258.200195
1523.154628	4230.399902
1523.671265	4253.600098
1524.187847	4214.799805
1524.704374	4220.399902
1525.220847	4258.200195
1525.737265	4244.200195
1526.253629	4256.799805
1526.769938	4243.0
1527.286192	4233.200195
1527.802392	4220.0
1528.318538	4247.399902
1528.834629	4234.0
1529.350666	4268.799805
1529.866648	4244.200195
1530.382575	4265.799805
1530.898448	4232.399902
1531.414266	4290.399902
1531.93003	4209.799805
1532.44574	4262.0
1532.961395	4238.0
1533.476995	4269.600098
1533.992541	4233.200195
1534.508033	4259.0
1535.02347	4273.0
1535.538852	4243.399902
1536.05418	4286.0
1536.569454	4257.0
1537.084673	4224.799805
1537.599837	4213.399902
1538.114947	4279.0
1538.630003	4268.399902
1539.145004	4278.399902
1539.659951	4257.799805
1540.174843	4265.799805
1540.689681	4233.200195
1541.204465	4239.600098
1541.719194	4243.0
1542.233868	4252.799805
1542.748488	4257.399902
1543.263054	4235.200195
1543.777565	4283.399902
1544.292022	4281.600098
1544.806424	4277.200195
1545.320772	4262.600098
1545.835066	4227.200195
1546.349305	4253.200195
1546.863489	4265.200195
1547.37762	4303.600098
1547.891696	4261.200195
1548.405717	4287.600098
1548.919684	4224.399902
1549.433597	4265.600098
1549.947455	4266.600098
1550.461259	4293.200195
1550.975009	4291.600098
1551.488704	4303.799805
1552.002345	4282.0
1552.515931	4277.200195
1553.029463	4284.200195
1553.542941	4244.200195
1554.056364	4248.600098
1554.569733	4292.0
1555.083048	4287.799805
1555.596308	4288.600098
1556.109514	4278.0
1556.622665	4259.200195
1557.135762	4220.200195
1557.648805	4243.799805
1558.161794	4250.600098
1558.674728	4283.399902
1559.187608	4289.399902
1559.700433	4273.200195
1560.213205	4260.600098
1560.725921	4235.600098
1561.238584	4282.399902
1561.751192	4280.799805
1562.263746	4274.200195
1562.776246	4246.200195
1563.288691	4246.799805
1563.801082	4253.399902
1564.313419	4247.799805
1564.825701	4246.399902
1565.337929	4278.399902
1565.850103	4267.799805
1566.362223	4272.799805
1566.874288	4287.799805
1567.386299	4274.399902
1567.898256	4241.399902
1568.410158	4226.399902
1568.922007	4250.399902
1569.4338	4266.0
1569.94554	4274.600098
1570.457226	4264.600098
1570.968857	4278.799805
1571.480434	4265.600098
1571.991956	4256.399902
1572.503425	4258.799805
1573.014839	4270.600098
1573.526199	4244.0
1574.037505	4230.399902
1574.548756	4280.399902
1575.059953	4256.399902
1575.571096	4270.399902
1576.082185	4280.200195
1576.59322	4255.799805
1577.1042	4253.0
1577.615126	4250.0
1578.125998	4247.200195
1578.636816	4205.600098
1579.14758	4273.0
1579.658289	4213.200195
1580.168944	4265.600098
1580.679545	4225.600098
1581.190092	4247.799805
1581.700585	4203.200195
1582.211023	4252.0
1582.721407	4236.799805
1583.231737	4215.799805
1583.742013	4227.600098
1584.252235	4229.0
1584.762403	4241.799805
1585.272516	4224.600098
1585.782575	4253.399902
1586.292581	4209.200195
1586.802532	4260.399902
1587.312428	4200.0
1587.822271	4238.399902
1588.33206	4237.0
1588.841794	4200.399902
1589.351474	4231.399902
1589.8611	4204.0
1590.370672	4243.799805
1590.88019	4211.799805
1591.389654	4259.799805
1591.899064	4226.200195
