1043.018714	2960.399902
1043.585098	2947.600098
1044.151424	2968.399902
1044.717692	2940.199951
1045.283903	2963.600098
1045.850056	2944.199951
1046.416151	2944.399902
1046.982188	2957.199951
1047.548167	2958.600098
1048.114089	2947.800049
1048.679953	2972.399902
1049.24576	2966.399902
1049.811509	2995.199951
1050.3772	2967.199951
1050.942833	2988.0
1051.508408	2979.399902
1052.073926	2961.199951
1052.639387	2995.399902
1053.204789	2985.800049
1053.770134	2986.399902
1054.335421	2989.0
1054.900651	2972.399902
1055.465823	3023.800049
1056.030937	2983.199951
1056.595993	3018.399902
1057.160992	3018.199951
1057.725934	3032.399902
1058.290817	3020.800049
1058.855643	3008.199951
1059.420411	3001.199951
1059.985122	2982.0
1060.549775	3006.800049
1061.114371	3025.0
1061.678908	3053.600098
1062.243389	3034.800049
1062.807811	3016.600098
1063.372176	3031.600098
1063.936483	3023.0
1064.500733	3023.199951
1065.064925	3035.399902
1065.62906	3050.600098
1066.193137	3062.199951
1066.757156	3049.199951
1067.321118	3049.399902
1067.885022	3023.800049
1068.448869	3065.800049
1069.012658	3057.0
1069.57639	3080.600098
1070.140063	3049.600098
1070.70368	3070.399902
1071.267239	3076.0
1071.83074	3092.800049
1072.394184	3066.399902
1072.95757	3069.199951
1073.520899	3050.600098
1074.08417	3108.600098
1074.647383	3075.199951
1075.21054	3095.399902
1075.773638	3088.600098
1076.336679	3087.199951
1076.899663	3096.0
1077.462589	3106.399902
1078.025457	3080.800049
1078.588268	3088.399902
1079.151022	3078.600098
1079.713718	3098.199951
1080.276356	3100.399902
1080.838937	3101.199951
1081.401461	3098.199951
1081.963927	3132.800049
1082.526336	3104.800049
1083.088687	3130.199951
1083.650981	3102.199951
1084.213217	3116.800049
1084.775396	3116.399902
1085.337517	3147.600098
1085.899581	3120.0
1086.461587	3135.0
1087.023536	3149.0
1087.585428	3127.600098
1088.147262	3127.800049
1088.709039	3148.199951
1089.270758	3117.399902
1089.83242	3148.600098
1090.394024	3128.600098
1090.955571	3138.0
1091.517061	3106.600098
1092.078493	3149.199951
1092.639868	3130.0
1093.201185	3167.600098
1093.762445	3157.800049
1094.323648	3165.800049
1094.884793	3117.0
1095.445881	3159.800049
1096.006911	3128.399902
1096.567884	3165.199951
1097.1288	3155.600098
1097.689659	3182.399902
1098.25046	3155.399902
1098.811203	3164.800049
1099.37189	3150.600098
1099.932518	3200.399902
1100.49309	3152.199951
1101.053604	3191.399902
1101.614061	3158.800049
1102.174461	3202.0
1102.734803	3195.800049
1103.295088	3202.399902
1103.855316	3148.199951
1104.415486	3192.199951
1104.975599	3150.600098
1105.535655	3188.399902
1106.095653	3165.199951
1106.655594	3192.0
1107.215478	3165.199951
1107.775305	3187.800049
1108.335074	3187.399902
1108.894786	3212.0
1109.45444	3185.0
1110.014038	3207.0
1110.573578	3176.800049
1111.133061	3197.399902
1111.692486	3194.199951
1112.251854	3217.800049
1112.811165	3185.199951
1113.370419	3235.0
1113.929616	3208.0
1114.488755	3228.399902
1115.047837	3227.600098
1115.606862	3224.600098
1116.16583	3238.399902
1116.72474	3241.199951
1117.283593	3219.199951
1117.842389	3236.600098
1118.401128	3218.399902
1118.959809	3258.800049
1119.518433	3199.600098
1120.077	3254.199951
1120.63551	3245.600098
1121.193963	3245.600098
1121.752358	3234.600098
1122.310697	3275.600098
1122.868978	3236.399902
1123.427202	3288.800049
1123.985368	3273.800049
1124.543478	3274.600098
1125.10153	3280.199951
1125.659526	3269.199951
1126.217464	3286.199951
1126.775345	3281.399902
1127.333168	3294.199951
1127.890935	3305.399902
1128.448644	3285.600098
1129.006297	3297.800049
1129.563892	3287.600098
1130.12143	3318.0
1130.678911	3288.600098
1131.236335	3276.600098
1131.793701	3276.199951
1132.351011	3326.199951
1132.908263	3301.399902
1133.465458	3314.600098
1134.022597	3316.0
1134.579678	3333.199951
1135.136702	3327.600098
1135.693669	3320.399902
1136.250578	3319.0
1136.807431	3339.600098
1137.364227	3363.600098
1137.920965	3337.600098
1138.477647	3354.600098
1139.034271	3356.600098
1139.590839	3356.199951
1140.147349	3362.399902
1140.703802	3368.399902
1141.260198	3358.0
1141.816537	3372.800049
1142.37282	3374.600098
1142.929045	3377.600098
1143.485213	3370.600098
1144.041323	3404.0
1144.597377	3384.800049
1145.153374	3407.600098
1145.709314	3383.800049
1146.265197	3421.199951
1146.821023	3400.600098
1147.376792	3405.399902
1147.932503	3384.800049
1148.488158	3408.0
1149.043756	3402.600098
1149.599297	3454.199951
1150.154781	3432.0
1150.710207	3441.0
1151.265577	3439.399902
1151.82089	3468.800049
1152.376146	3459.800049
1152.931345	3450.800049
1153.486487	3460.600098
1154.041572	3474.199951
1154.5966	3468.600098
1155.151571	3492.0
1155.706485	3490.399902
1156.261342	3467.0
1156.816142	3459.199951
1157.370885	3455.800049
1157.925572	3482.0
1158.480201	3491.600098
1159.034774	3495.800049
1159.589289	3524.800049
1160.143748	3500.800049
1160.698149	3509.0
1161.252494	3517.399902
1161.806782	3549.0
1162.361013	3539.399902
1162.915187	3522.600098
1163.469304	3540.399902
1164.023364	3539.399902
1164.577368	3510.800049
1165.131314	3522.0
1165.685204	3514.800049
1166.239036	3541.399902
1166.792812	3532.399902
1167.346531	3541.199951
1167.900193	3552.399902
1168.453798	3538.399902
1169.007347	3512.199951
1169.560838	3580.199951
1170.114273	3540.0
1170.66765	3587.399902
1171.220971	3572.0
1171.774235	3572.399902
1172.327443	3573.600098
1172.880593	3595.800049
1173.433687	3596.800049
1173.986723	3582.199951
1174.539703	3589.0
1175.092626	3587.199951
1175.645493	3584.600098
1176.198302	3602.399902
1176.751055	3607.0
1177.303751	3603.0
1177.85639	3618.0
1178.408972	3622.600098
1178.961498	3613.0
1179.513966	3603.399902
1180.066378	3634.199951
1180.618733	3603.399902
1181.171032	3615.800049
1181.723273	3610.800049
1182.275458	3631.199951
1182.827586	3625.600098
1183.379657	3632.0
1183.931672	3622.600098
1184.48363	3678.600098
1185.035531	3650.0
1185.587375	3657.0
1186.139162	3668.0
1186.690893	3636.0
1187.242567	3636.600098
1187.794184	3672.199951
1188.345745	3677.800049
1188.897249	3674.399902
1189.448696	3672.0
1190.000086	3683.800049
1190.55142	3668.0
1191.102697	3665.600098
1191.653918	3683.800049
1192.205081	3698.600098
1192.756188	3681.600098
1193.307238	3702.800049
1193.858232	3702.399902
1194.409169	3680.600098
1194.960049	3710.399902
1195.510872	3723.199951
1196.061639	3724.0
1196.612349	3707.600098
1197.163003	3685.800049
1197.713599	3691.800049
1198.264139	3723.399902
1198.814623	3686.399902
1199.36505	3746.199951
1199.91542	3716.399902
1200.465734	3720.199951
1201.01599	3724.800049
1201.566191	3742.0
1202.116334	3687.199951
1202.666421	3756.199951
1203.216452	3717.399902
1203.766425	3726.600098
1204.316343	3722.800049
1204.866203	3739.600098
1205.416007	3741.800049
1205.965754	3771.600098
1206.515445	3744.600098
1207.065079	3733.600098
1207.614657	3744.600098
1208.164177	3736.600098
1208.713642	3758.399902
1209.26305	3778.800049
1209.812401	3747.399902
1210.361695	3743.199951
1210.910933	3751.800049
1211.460115	3769.399902
1212.00924	3777.600098
1212.558308	3766.600098
1213.10732	3791.600098
1213.656275	3767.800049
1214.205174	3763.800049
1214.754016	3810.800049
1215.302801	3805.199951
1215.85153	3771.800049
1216.400203	3794.0
1216.948819	3788.800049
1217.497378	3802.399902
1218.045881	3789.800049
1218.594327	3801.0
1219.142717	3806.399902
1219.691051	3820.399902
1220.239327	3788.600098
1220.787548	3826.800049
1221.335712	3833.399902
1221.883819	3811.600098
1222.43187	3819.399902
1222.979864	3829.600098
1223.527802	3830.600098
1224.075683	3871.600098
1224.623508	3835.800049
1225.171277	3824.399902
1225.718989	3837.399902
1226.266644	3851.600098
1226.814243	3827.0
1227.361786	3841.800049
1227.909272	3871.199951
1228.456702	3830.0
1229.004075	3865.800049
1229.551392	3852.0
1230.098652	3852.600098
1230.645856	3841.800049
1231.193003	3879.399902
1231.740094	3839.199951
1232.287129	3873.199951
1232.834107	3905.800049
1233.381029	3885.600098
1233.927894	3871.600098
1234.474703	3874.199951
1235.021455	3892.199951
1235.568151	3897.199951
1236.114791	3872.800049
1236.661374	3914.800049
1237.207901	3890.0
1237.754372	3920.600098
1238.300786	3911.800049
1238.847144	3920.199951
1239.393445	3910.199951
1239.93969	3916.0
1240.485879	3920.800049
1241.032011	3932.399902
1241.578087	3937.399902
1242.124106	3929.600098
1242.67007	3950.800049
1243.215976	3922.0
1243.761827	3907.800049
1244.307621	3954.600098
1244.853359	3963.600098
1245.39904	3959.199951
1245.944665	3955.0
1246.490234	3970.600098
1247.035746	3983.600098
1247.581203	3971.0
1248.126602	3949.199951
1248.671946	3952.399902
1249.217233	3967.399902
1249.762464	3979.199951
1250.307638	3972.600098
1250.852757	3961.600098
1251.397819	3989.399902
1251.942824	3947.600098
1252.487774	3990.399902
1253.032667	3988.399902
1253.577503	4024.199951
1254.122284	4003.399902
1254.667008	4001.0
1255.211676	3983.399902
1255.756288	4026.199951
1256.300843	4003.399902
1256.845342	4009.800049
1257.389785	4024.199951
1257.934172	4031.399902
1258.478502	4007.0
1259.022776	4026.600098
1259.566994	4024.800049
1260.111156	4025.600098
1260.655261	4077.199951
1261.199311	4050.399902
1261.743304	4029.199951
1262.28724	4033.399902
1262.831121	4028.600098
1263.374945	4023.800049
1263.918713	4035.399902
1264.462425	4071.600098
1265.006081	4039.600098
1265.54968	4081.199951
1266.093223	4071.399902
1266.636711	4041.600098
1267.180141	4094.399902
1267.723516	4059.399902
1268.266835	4077.0
1268.810097	4060.600098
1269.353303	4080.0
1269.896453	4059.399902
1270.439547	4077.800049
1270.982584	4078.199951
1271.525566	4091.800049
1272.068491	4121.0
1272.61136	4081.399902
1273.154173	4073.0
1273.69693	4130.799805
1274.239631	4113.200195
1274.782275	4113.200195
1275.324864	4139.799805
1275.867396	4128.799805
1276.409872	4085.199951
1276.952292	4127.799805
1277.494656	4118.799805
1278.036964	4087.199951
1278.579215	4138.399902
1279.121411	4146.600098
1279.66355	4134.0
1280.205634	4108.799805
1280.747661	4103.200195
1281.289632	4165.0
1281.831547	4164.799805
1282.373406	4111.600098
1282.915209	4181.0
1283.456955	4103.799805
1283.998646	4147.600098
1284.540281	4185.600098
1285.081859	4235.0
1285.623381	4347.600098
1286.164848	4281.200195
1286.706258	4186.799805
1287.247612	4169.600098
1287.788911	4157.0
1288.330153	4164.0
1288.871339	4174.399902
1289.412469	4188.799805
1289.953543	4145.600098
1290.494561	4177.200195
1291.035523	4154.799805
1291.576428	4174.200195
1292.117278	4180.600098
1292.658072	4196.399902
1293.19881	4162.399902
1293.739492	4178.200195
1294.280118	4219.200195
1294.820687	4184.600098
1295.361201	4220.200195
1295.901659	4205.399902
1296.442061	4178.200195
1296.982406	4170.600098
1297.522696	4227.799805
1298.06293	4207.200195
1298.603108	4204.600098
1299.143229	4208.799805
1299.683295	4239.0
1300.223305	4215.0
1300.763259	4251.799805
1301.303157	4184.200195
1301.842999	4229.399902
1302.382785	4242.399902
1302.922515	4220.0
1303.462189	4217.0
1304.001807	4256.600098
1304.541369	4231.0
1305.080875	4247.799805
1305.620326	4245.799805
1306.15972	4262.0
1306.699058	4236.399902
1307.238341	4266.799805
1307.777567	4257.399902
1308.316738	4219.399902
1308.855853	4272.799805
1309.394912	4246.399902
1309.933915	4264.600098
1310.472862	4293.399902
1311.011753	4286.200195
1311.550588	4237.399902
1312.089367	4276.399902
1312.62809	4302.600098
1313.166758	4296.600098
1313.70537	4254.799805
1314.243925	4292.600098
1314.782425	4246.600098
1315.320869	4318.399902
1315.859257	4294.600098
1316.397589	4294.200195
1316.935866	4319.200195
1317.474086	4274.200195
1318.012251	4299.600098
1318.55036	4268.600098
1319.088413	4326.399902
1319.62641	4263.200195
1320.164351	4275.600098
1320.702236	4318.200195
1321.240066	4302.0
1321.777839	4268.0
1322.315557	4348.399902
1322.853219	4299.799805
1323.390826	4318.0
1323.928376	4313.399902
1324.465871	4312.600098
1325.003309	4319.200195
1325.540692	4341.600098
1326.07802	4337.200195
1326.615291	4341.799805
1327.152506	4322.600098
1327.689666	4322.200195
1328.22677	4370.799805
1328.763818	4346.399902
1329.300811	4348.0
1329.837747	4340.200195
1330.374628	4360.0
1330.911453	4347.600098
1331.448222	4367.600098
1331.984936	4326.0
1332.521594	4373.600098
1333.058196	4357.0
1333.594742	4395.399902
1334.131232	4323.399902
1334.667667	4374.200195
1335.204046	4354.399902
1335.740369	4386.399902
1336.276637	4376.200195
1336.812848	4399.600098
1337.349004	4414.0
1337.885105	4413.0
1338.421149	4418.200195
1338.957138	4372.0
1339.493071	4386.399902
1340.028949	4387.0
1340.56477	4378.399902
1341.100536	4386.200195
1341.636246	4401.200195
1342.171901	4371.200195
1342.7075	4406.200195
1343.243043	4375.799805
1343.77853	4393.799805
1344.313962	4395.399902
1344.849338	4432.0
1345.384659	4392.600098
1345.919923	4443.0
1346.455133	4402.200195
1346.990286	4426.399902
1347.525384	4423.799805
1348.060426	4425.200195
1348.595412	4405.600098
1349.130343	4393.799805
1349.665218	4401.799805
1350.200037	4422.600098
1350.734801	4419.600098
1351.269509	4440.200195
1351.804162	4432.799805
1352.338758	4426.200195
1352.8733	4440.0
1353.407785	4414.0
1353.942215	4478.0
1354.476589	4402.600098
1355.010908	4451.0
1355.545171	4428.399902
1356.079379	4433.600098
1356.61353	4454.200195
1357.147627	4484.799805
1357.681667	4428.799805
1358.215652	4435.200195
1358.749582	4453.600098
1359.283456	4451.200195
1359.817274	4457.0
1360.351037	4460.0
1360.884744	4497.399902
1361.418395	4436.0
1361.951991	4449.0
1362.485531	4456.200195
1363.019016	4517.600098
1363.552445	4484.600098
1364.085819	4511.200195
1364.619137	4432.600098
1365.1524	4469.399902
1365.685607	4476.0
1366.218758	4510.399902
1366.751854	4502.399902
1367.284894	4492.600098
1367.817879	4471.399902
1368.350808	4490.600098
1368.883682	4485.0
1369.4165	4472.799805
1369.949263	4520.200195
1370.48197	4506.399902
1371.014622	4523.0
1371.547218	4491.200195
1372.079758	4504.0
1372.612244	4494.799805
1373.144673	4535.200195
1373.677047	4483.799805
1374.209366	4514.399902
1374.741629	4488.600098
1375.273836	4541.600098
1375.805989	4518.399902
1376.338085	4566.200195
1376.870126	4501.200195
1377.402112	4538.200195
1377.934042	4532.200195
1378.465917	4506.600098
1378.997736	4570.600098
1379.5295	4515.200195
1380.061208	4542.0
1380.592861	4510.0
1381.124459	4548.600098
1381.656	4510.200195
1382.187487	4577.200195
1382.718918	4539.0
1383.250294	4559.399902
1383.781614	4528.0
1384.312879	4566.399902
1384.844088	4542.200195
1385.375242	4568.200195
1385.90634	4543.200195
1386.437383	4561.200195
1386.968371	4571.0
1387.499303	4559.600098
1388.03018	4616.399902
1388.561001	4744.799805
1389.091767	4930.399902
1389.622478	4680.0
1390.153133	4621.399902
1390.683733	4532.600098
1391.214277	4608.399902
1391.744766	4559.0
1392.2752	4589.399902
1392.805578	4584.200195
1393.335901	4585.799805
1393.866168	4545.0
1394.396381	4610.600098
1394.926537	4585.399902
1395.456639	4595.399902
1395.986685	4574.200195
1396.516675	4575.399902
1397.046611	4593.399902
1397.576491	4577.200195
1398.106315	4621.200195
1398.636084	4594.200195
1399.165798	4613.799805
1399.695457	4597.399902
1400.22506	4623.0
1400.754608	4579.0
1401.284101	4638.600098
1401.813538	4583.799805
1402.34292	4606.0
1402.872247	4592.600098
1403.401518	4605.399902
1403.930734	4589.799805
1404.459895	4660.200195
1404.989	4637.399902
1405.51805	4623.799805
1406.047045	4637.0
1406.575984	4630.200195
1407.104869	4650.799805
1407.633697	4637.799805
1408.162471	4673.200195
1408.691189	4653.799805
1409.219852	4655.600098
1409.74846	4639.799805
1410.277013	4699.0
1410.80551	4624.399902
1411.333952	4673.399902
1411.862339	4658.799805
1412.39067	4651.399902
1412.918946	4660.399902
1413.447167	4639.0
1413.975333	4682.200195
1414.503444	4636.399902
1415.031499	4678.399902
1415.559499	4665.0
1416.087444	4676.200195
1416.615333	4631.799805
1417.143167	4637.399902
1417.670947	4661.600098
1418.19867	4681.200195
1418.726339	4650.399902
1419.253952	4702.0
1419.781511	4657.600098
1420.309014	4657.399902
1420.836461	4681.600098
1421.363854	4680.799805
1421.891191	4683.0
1422.418474	4678.399902
1422.945701	4688.0
1423.472872	4664.200195
1423.999989	4707.399902
1424.52705	4669.399902
1425.054057	4705.799805
1425.581008	4701.600098
1426.107904	4709.399902
1426.634745	4712.0
1427.16153	4691.399902
1427.688261	4679.600098
1428.214936	4723.200195
1428.741556	4690.0
1429.268121	4680.399902
1429.794631	4729.399902
1430.321085	4684.399902
1430.847485	4702.0
1431.373829	4698.0
1431.900118	4680.399902
1432.426353	4711.200195
1432.952532	4733.200195
1433.478655	4720.799805
1434.004724	4705.600098
1434.530738	4719.399902
1435.056696	4712.399902
1435.5826	4717.200195
1436.108448	4700.799805
1436.634241	4748.0
1437.159979	4703.200195
1437.685662	4711.799805
1438.21129	4703.600098
1438.736863	4694.799805
1439.262381	4693.399902
1439.787843	4730.600098
1440.313251	4710.799805
1440.838603	4692.799805
1441.3639	4735.200195
1441.889143	4734.200195
1442.41433	4705.0
1442.939462	4748.0
1443.464539	4757.200195
1443.989561	4696.600098
1444.514528	4721.799805
1445.03944	4734.799805
1445.564297	4712.0
1446.089099	4717.200195
1446.613846	4749.0
1447.138537	4709.799805
1447.663174	4722.399902
1448.187756	4740.600098
1448.712282	4762.399902
1449.236754	4719.0
1449.761171	4733.600098
1450.285532	4721.0
1450.809839	4734.799805
1451.33409	4738.799805
1451.858287	4754.0
1452.382428	4725.200195
1452.906515	4726.399902
1453.430546	4725.399902
1453.954523	4753.399902
1454.478444	4733.200195
1455.002311	4763.799805
1455.526123	4730.0
1456.049879	4764.399902
1456.573581	4731.799805
1457.097227	4738.0
1457.620819	4764.200195
1458.144356	4762.200195
1458.667837	4739.799805
1459.191264	4735.399902
1459.714636	4747.600098
1460.237952	4762.399902
1460.761214	4757.200195
1461.284421	4734.0
1461.807573	4767.200195
1462.33067	4795.799805
1462.853712	4779.200195
1463.376699	4740.799805
1463.899632	4774.799805
1464.422509	4749.600098
1464.945331	4779.600098
1465.468099	4775.0
1465.990811	4760.200195
1466.513469	4742.399902
1467.036071	4755.0
1467.558619	4762.200195
1468.081112	4736.0
1468.60355	4749.799805
1469.125933	4735.200195
1469.648261	4752.399902
1470.170534	4762.0
1470.692752	4729.399902
1471.214916	4767.799805
1471.737024	4746.799805
1472.259078	4754.200195
1472.781077	4761.200195
1473.303021	4767.399902
1473.82491	4758.799805
1474.346744	4754.399902
1474.868523	4777.0
1475.390248	4756.600098
1475.911917	4731.399902
1476.433532	4758.399902
1476.955092	4761.399902
1477.476597	4767.799805
1477.998047	4745.200195
1478.519442	4750.399902
1479.040783	4748.399902
1479.562068	4743.200195
1480.083299	4754.200195
1480.604475	4727.600098
1481.125596	4788.600098
1481.646663	4736.799805
1482.167674	4720.0
1482.688631	4733.0
1483.209533	4755.0
1483.73038	4751.200195
1484.251172	4780.200195
1484.771909	4778.200195
1485.292592	4741.200195
1485.81322	4759.799805
1486.333793	4753.600098
1486.854311	4754.799805
1487.374775	4755.399902
1487.895183	4725.200195
1488.415537	4741.399902
1488.935836	4780.799805
1489.456081	4742.399902
1489.97627	4746.600098
1490.496405	4762.399902
1491.016485	4751.399902
1491.536511	4757.399902
1492.056481	4738.200195
1492.576397	4757.399902
1493.096258	4760.799805
1493.616064	4770.600098
1494.135816	4765.600098
1494.655513	4763.600098
1495.175155	4742.799805
1495.694742	4757.200195
1496.214274	4725.799805
1496.733752	4723.600098
1497.253175	4725.200195
1497.772544	4792.200195
1498.291858	4763.799805
1498.811116	4739.0
1499.330321	4790.0
1499.84947	4752.799805
1500.368565	4736.0
1500.887605	4758.200195
1501.406591	4787.600098
1501.925521	4758.0
1502.444397	4752.0
1502.963219	4762.200195
1503.481985	4795.0
1504.000697	4777.0
1504.519355	4770.200195
1505.037957	4796.200195
1505.556505	4775.399902
1506.074999	4768.600098
1506.593437	4774.0
1507.111821	4749.0
1507.63015	4763.600098
1508.148425	4737.0
1508.666645	4742.600098
1509.18481	4754.600098
1509.702921	4719.0
1510.220977	4762.799805
1510.738979	4760.799805
1511.256925	4763.399902
1511.774817	4795.799805
1512.292655	4777.799805
1512.810438	4743.200195
1513.328166	4777.0
1513.84584	4752.799805
1514.363459	4748.0
1514.881023	4750.399902
1515.398533	4751.0
1515.915988	4780.799805
1516.433389	4724.0
1516.950734	4743.799805
1517.468026	4741.399902
1517.985263	4756.0
1518.502445	4744.0
1519.019572	4756.399902
1519.536645	4765.399902
1520.053664	4750.200195
1520.570628	4734.0
1521.087537	4742.600098
1521.604392	4747.600098
1522.121192	4748.799805
1522.637937	4780.399902
1523.154628	4766.600098
1523.671265	4758.799805
1524.187847	4744.200195
1524.704374	4758.399902
1525.220847	4772.600098
1525.737265	4753.399902
1526.253629	4778.399902
1526.769938	4797.200195
1527.286192	4754.600098
1527.802392	4752.600098
1528.318538	4770.399902
1528.834629	4801.600098
1529.350666	4760.799805
1529.866648	4752.200195
1530.382575	4781.399902
1530.898448	4745.399902
1531.414266	4799.399902
1531.93003	4765.600098
1532.44574	4781.200195
1532.961395	4787.399902
1533.476995	4789.600098
1533.992541	4819.799805
1534.508033	4776.200195
1535.02347	4762.799805
1535.538852	4774.200195
1536.05418	4762.799805
1536.569454	4779.0
1537.084673	4833.200195
1537.599837	4772.399902
1538.114947	4779.200195
1538.630003	4778.399902
1539.145004	4790.799805
1539.659951	4787.799805
1540.174843	4754.200195
1540.689681	4775.600098
1541.204465	4761.0
1541.719194	4795.600098
1542.233868	4793.0
1542.748488	4800.399902
1543.263054	4774.600098
1543.777565	4812.0
1544.292022	4805.200195
1544.806424	4785.600098
1545.320772	4770.600098
1545.835066	4770.200195
1546.349305	4788.200195
1546.863489	4788.799805
1547.37762	4820.399902
1547.891696	4786.799805
1548.405717	4837.399902
1548.919684	4770.0
1549.433597	4808.200195
1549.947455	4783.399902
1550.461259	4804.0
1550.975009	4791.600098
1551.488704	4808.0
1552.002345	4817.0
1552.515931	4779.600098
1553.029463	4787.200195
1553.542941	4782.399902
1554.056364	4820.0
1554.569733	4763.0
1555.083048	4787.200195
1555.596308	4810.0
1556.109514	4794.799805
1556.622665	4780.200195
1557.135762	4783.399902
1557.648805	4810.0
1558.161794	4770.0
1558.674728	4791.200195
1559.187608	4784.200195
1559.700433	4785.200195
1560.213205	4784.0
1560.725921	4812.0
1561.238584	4811.399902
1561.751192	4795.799805
1562.263746	4834.799805
1562.776246	4784.600098
1563.288691	4825.600098
1563.801082	4770.399902
1564.313419	4845.600098
1564.825701	4810.799805
1565.337929	4819.0
1565.850103	4774.200195
1566.362223	4812.0
1566.874288	4799.600098
1567.386299	4833.799805
1567.898256	4797.600098
1568.410158	4737.600098
1568.922007	4817.600098
1569.4338	4773.0
1569.94554	4827.0
1570.457226	4802.600098
1570.968857	4860.399902
1571.480434	4794.600098
1571.991956	4789.799805
1572.503425	4803.0
1573.014839	4805.600098
1573.526199	4806.200195
1574.037505	4768.399902
1574.548756	4865.200195
1575.059953	4801.600098
1575.571096	4788.399902
1576.082185	4782.0
1576.59322	4825.799805
1577.1042	4774.399902
1577.615126	4807.0
1578.125998	4777.399902
1578.636816	4745.0
1579.14758	4802.399902
1579.658289	4762.0
1580.168944	4804.399902
1580.679545	4765.200195
1581.190092	4797.399902
1581.700585	4762.0
1582.211023	4766.200195
1582.721407	4792.399902
1583.231737	4765.799805
1583.742013	4805.399902
1584.252235	4769.799805
1584.762403	4790.799805
1585.272516	4785.600098
1585.782575	4805.399902
1586.292581	4770.399902
1586.802532	4827.600098
1587.312428	4788.0
1587.822271	4787.600098
1588.33206	4813.399902
1588.841794	4755.399902
1589.351474	4817.799805
1589.8611	4737.600098
1590.370672	4811.399902
1590.88019	4754.399902
1591.389654	4812.399902
1591.899064	4753.200195
