 1.042452273E+03	 2.925800049E+03
 1.043018714E+03	 2.960399902E+03
 1.043585098E+03	 2.947600098E+03
 1.044151424E+03	 2.968399902E+03
 1.044717692E+03	 2.940199951E+03
 1.045283903E+03	 2.963600098E+03
 1.045850056E+03	 2.944199951E+03
 1.046416151E+03	 2.944399902E+03
 1.046982188E+03	 2.957199951E+03
 1.047548167E+03	 2.958600098E+03
 1.048114089E+03	 2.947800049E+03
 1.048679953E+03	 2.972399902E+03
 1.049245760E+03	 2.966399902E+03
 1.049811509E+03	 2.995199951E+03
 1.050377200E+03	 2.967199951E+03
 1.050942833E+03	 2.988000000E+03
 1.051508408E+03	 2.979399902E+03
 1.052073926E+03	 2.961199951E+03
 1.052639387E+03	 2.995399902E+03
 1.053204789E+03	 2.985800049E+03
 1.053770134E+03	 2.986399902E+03
 1.054335421E+03	 2.989000000E+03
 1.054900651E+03	 2.972399902E+03
 1.055465823E+03	 3.023800049E+03
 1.056030937E+03	 2.983199951E+03
 1.056595993E+03	 3.018399902E+03
 1.057160992E+03	 3.018199951E+03
 1.057725934E+03	 3.032399902E+03
 1.058290817E+03	 3.020800049E+03
 1.058855643E+03	 3.008199951E+03
 1.059420411E+03	 3.001199951E+03
 1.059985122E+03	 2.982000000E+03
 1.060549775E+03	 3.006800049E+03
 1.061114371E+03	 3.025000000E+03
 1.061678908E+03	 3.053600098E+03
 1.062243389E+03	 3.034800049E+03
 1.062807811E+03	 3.016600098E+03
 1.063372176E+03	 3.031600098E+03
 1.063936483E+03	 3.023000000E+03
 1.064500733E+03	 3.023199951E+03
 1.065064925E+03	 3.035399902E+03
 1.065629060E+03	 3.050600098E+03
 1.066193137E+03	 3.062199951E+03
 1.066757156E+03	 3.049199951E+03
 1.067321118E+03	 3.049399902E+03
 1.067885022E+03	 3.023800049E+03
 1.068448869E+03	 3.065800049E+03
 1.069012658E+03	 3.057000000E+03
 1.069576390E+03	 3.080600098E+03
 1.070140063E+03	 3.049600098E+03
 1.070703680E+03	 3.070399902E+03
 1.071267239E+03	 3.076000000E+03
 1.071830740E+03	 3.092800049E+03
 1.072394184E+03	 3.066399902E+03
 1.072957570E+03	 3.069199951E+03
 1.073520899E+03	 3.050600098E+03
 1.074084170E+03	 3.108600098E+03
 1.074647383E+03	 3.075199951E+03
 1.075210540E+03	 3.095399902E+03
 1.075773638E+03	 3.088600098E+03
 1.076336679E+03	 3.087199951E+03
 1.076899663E+03	 3.096000000E+03
 1.077462589E+03	 3.106399902E+03
 1.078025457E+03	 3.080800049E+03
 1.078588268E+03	 3.088399902E+03
 1.079151022E+03	 3.078600098E+03
 1.079713718E+03	 3.098199951E+03
 1.080276356E+03	 3.100399902E+03
 1.080838937E+03	 3.101199951E+03
 1.081401461E+03	 3.098199951E+03
 1.081963927E+03	 3.132800049E+03
 1.082526336E+03	 3.104800049E+03
 1.083088687E+03	 3.130199951E+03
 1.083650981E+03	 3.102199951E+03
 1.084213217E+03	 3.116800049E+03
 1.084775396E+03	 3.116399902E+03
 1.085337517E+03	 3.147600098E+03
 1.085899581E+03	 3.120000000E+03
 1.086461587E+03	 3.135000000E+03
 1.087023536E+03	 3.149000000E+03
 1.087585428E+03	 3.127600098E+03
 1.088147262E+03	 3.127800049E+03
 1.088709039E+03	 3.148199951E+03
 1.089270758E+03	 3.117399902E+03
 1.089832420E+03	 3.148600098E+03
 1.090394024E+03	 3.128600098E+03
 1.090955571E+03	 3.138000000E+03
 1.091517061E+03	 3.106600098E+03
 1.092078493E+03	 3.149199951E+03
 1.092639868E+03	 3.130000000E+03
 1.093201185E+03	 3.167600098E+03
 1.093762445E+03	 3.157800049E+03
 1.094323648E+03	 3.165800049E+03
 1.094884793E+03	 3.117000000E+03
 1.095445881E+03	 3.159800049E+03
 1.096006911E+03	 3.128399902E+03
 1.096567884E+03	 3.165199951E+03
 1.097128800E+03	 3.155600098E+03
 1.097689659E+03	 3.182399902E+03
 1.098250460E+03	 3.155399902E+03
 1.098811203E+03	 3.164800049E+03
 1.099371890E+03	 3.150600098E+03
 1.099932518E+03	 3.200399902E+03
 1.100493090E+03	 3.152199951E+03
 1.101053604E+03	 3.191399902E+03
 1.101614061E+03	 3.158800049E+03
 1.102174461E+03	 3.202000000E+03
 1.102734803E+03	 3.195800049E+03
 1.103295088E+03	 3.202399902E+03
 1.103855316E+03	 3.148199951E+03
 1.104415486E+03	 3.192199951E+03
 1.104975599E+03	 3.150600098E+03
 1.105535655E+03	 3.188399902E+03
 1.106095653E+03	 3.165199951E+03
 1.106655594E+03	 3.192000000E+03
 1.107215478E+03	 3.165199951E+03
 1.107775305E+03	 3.187800049E+03
 1.108335074E+03	 3.187399902E+03
 1.108894786E+03	 3.212000000E+03
 1.109454440E+03	 3.185000000E+03
 1.110014038E+03	 3.207000000E+03
 1.110573578E+03	 3.176800049E+03
 1.111133061E+03	 3.197399902E+03
 1.111692486E+03	 3.194199951E+03
 1.112251854E+03	 3.217800049E+03
 1.112811165E+03	 3.185199951E+03
 1.113370419E+03	 3.235000000E+03
 1.113929616E+03	 3.208000000E+03
 1.114488755E+03	 3.228399902E+03
 1.115047837E+03	 3.227600098E+03
 1.115606862E+03	 3.224600098E+03
 1.116165830E+03	 3.238399902E+03
 1.116724740E+03	 3.241199951E+03
 1.117283593E+03	 3.219199951E+03
 1.117842389E+03	 3.236600098E+03
 1.118401128E+03	 3.218399902E+03
 1.118959809E+03	 3.258800049E+03
 1.119518433E+03	 3.199600098E+03
 1.120077000E+03	 3.254199951E+03
 1.120635510E+03	 3.245600098E+03
 1.121193963E+03	 3.245600098E+03
 1.121752358E+03	 3.234600098E+03
 1.122310697E+03	 3.275600098E+03
 1.122868978E+03	 3.236399902E+03
 1.123427202E+03	 3.288800049E+03
 1.123985368E+03	 3.273800049E+03
 1.124543478E+03	 3.274600098E+03
 1.125101530E+03	 3.280199951E+03
 1.125659526E+03	 3.269199951E+03
 1.126217464E+03	 3.286199951E+03
 1.126775345E+03	 3.281399902E+03
 1.127333168E+03	 3.294199951E+03
 1.127890935E+03	 3.305399902E+03
 1.128448644E+03	 3.285600098E+03
 1.129006297E+03	 3.297800049E+03
 1.129563892E+03	 3.287600098E+03
 1.130121430E+03	 3.318000000E+03
 1.130678911E+03	 3.288600098E+03
 1.131236335E+03	 3.276600098E+03
 1.131793701E+03	 3.276199951E+03
 1.132351011E+03	 3.326199951E+03
 1.132908263E+03	 3.301399902E+03
 1.133465458E+03	 3.314600098E+03
 1.134022597E+03	 3.316000000E+03
 1.134579678E+03	 3.333199951E+03
 1.135136702E+03	 3.327600098E+03
 1.135693669E+03	 3.320399902E+03
 1.136250578E+03	 3.319000000E+03
 1.136807431E+03	 3.339600098E+03
 1.137364227E+03	 3.363600098E+03
 1.137920965E+03	 3.337600098E+03
 1.138477647E+03	 3.354600098E+03
 1.139034271E+03	 3.356600098E+03
 1.139590839E+03	 3.356199951E+03
 1.140147349E+03	 3.362399902E+03
 1.140703802E+03	 3.368399902E+03
 1.141260198E+03	 3.358000000E+03
 1.141816537E+03	 3.372800049E+03
 1.142372820E+03	 3.374600098E+03
 1.142929045E+03	 3.377600098E+03
 1.143485213E+03	 3.370600098E+03
 1.144041323E+03	 3.404000000E+03
 1.144597377E+03	 3.384800049E+03
 1.145153374E+03	 3.407600098E+03
 1.145709314E+03	 3.383800049E+03
 1.146265197E+03	 3.421199951E+03
 1.146821023E+03	 3.400600098E+03
 1.147376792E+03	 3.405399902E+03
 1.147932503E+03	 3.384800049E+03
 1.148488158E+03	 3.408000000E+03
 1.149043756E+03	 3.402600098E+03
 1.149599297E+03	 3.454199951E+03
 1.150154781E+03	 3.432000000E+03
 1.150710207E+03	 3.441000000E+03
 1.151265577E+03	 3.439399902E+03
 1.151820890E+03	 3.468800049E+03
 1.152376146E+03	 3.459800049E+03
 1.152931345E+03	 3.450800049E+03
 1.153486487E+03	 3.460600098E+03
 1.154041572E+03	 3.474199951E+03
 1.154596600E+03	 3.468600098E+03
 1.155151571E+03	 3.492000000E+03
 1.155706485E+03	 3.490399902E+03
 1.156261342E+03	 3.467000000E+03
 1.156816142E+03	 3.459199951E+03
 1.157370885E+03	 3.455800049E+03
 1.157925572E+03	 3.482000000E+03
 1.158480201E+03	 3.491600098E+03
 1.159034774E+03	 3.495800049E+03
 1.159589289E+03	 3.524800049E+03
 1.160143748E+03	 3.500800049E+03
 1.160698149E+03	 3.509000000E+03
 1.161252494E+03	 3.517399902E+03
 1.161806782E+03	 3.549000000E+03
 1.162361013E+03	 3.539399902E+03
 1.162915187E+03	 3.522600098E+03
 1.163469304E+03	 3.540399902E+03
 1.164023364E+03	 3.539399902E+03
 1.164577368E+03	 3.510800049E+03
 1.165131314E+03	 3.522000000E+03
 1.165685204E+03	 3.514800049E+03
 1.166239036E+03	 3.541399902E+03
 1.166792812E+03	 3.532399902E+03
 1.167346531E+03	 3.541199951E+03
 1.167900193E+03	 3.552399902E+03
 1.168453798E+03	 3.538399902E+03
 1.169007347E+03	 3.512199951E+03
 1.169560838E+03	 3.580199951E+03
 1.170114273E+03	 3.540000000E+03
 1.170667650E+03	 3.587399902E+03
 1.171220971E+03	 3.572000000E+03
 1.171774235E+03	 3.572399902E+03
 1.172327443E+03	 3.573600098E+03
 1.172880593E+03	 3.595800049E+03
 1.173433687E+03	 3.596800049E+03
 1.173986723E+03	 3.582199951E+03
 1.174539703E+03	 3.589000000E+03
 1.175092626E+03	 3.587199951E+03
 1.175645493E+03	 3.584600098E+03
 1.176198302E+03	 3.602399902E+03
 1.176751055E+03	 3.607000000E+03
 1.177303751E+03	 3.603000000E+03
 1.177856390E+03	 3.618000000E+03
 1.178408972E+03	 3.622600098E+03
 1.178961498E+03	 3.613000000E+03
 1.179513966E+03	 3.603399902E+03
 1.180066378E+03	 3.634199951E+03
 1.180618733E+03	 3.603399902E+03
 1.181171032E+03	 3.615800049E+03
 1.181723273E+03	 3.610800049E+03
 1.182275458E+03	 3.631199951E+03
 1.182827586E+03	 3.625600098E+03
 1.183379657E+03	 3.632000000E+03
 1.183931672E+03	 3.622600098E+03
 1.184483630E+03	 3.678600098E+03
 1.185035531E+03	 3.650000000E+03
 1.185587375E+03	 3.657000000E+03
 1.186139162E+03	 3.668000000E+03
 1.186690893E+03	 3.636000000E+03
 1.187242567E+03	 3.636600098E+03
 1.187794184E+03	 3.672199951E+03
 1.188345745E+03	 3.677800049E+03
 1.188897249E+03	 3.674399902E+03
 1.189448696E+03	 3.672000000E+03
 1.190000086E+03	 3.683800049E+03
 1.190551420E+03	 3.668000000E+03
 1.191102697E+03	 3.665600098E+03
 1.191653918E+03	 3.683800049E+03
 1.192205081E+03	 3.698600098E+03
 1.192756188E+03	 3.681600098E+03
 1.193307238E+03	 3.702800049E+03
 1.193858232E+03	 3.702399902E+03
 1.194409169E+03	 3.680600098E+03
 1.194960049E+03	 3.710399902E+03
 1.195510872E+03	 3.723199951E+03
 1.196061639E+03	 3.724000000E+03
 1.196612349E+03	 3.707600098E+03
 1.197163003E+03	 3.685800049E+03
 1.197713599E+03	 3.691800049E+03
 1.198264139E+03	 3.723399902E+03
 1.198814623E+03	 3.686399902E+03
 1.199365050E+03	 3.746199951E+03
 1.199915420E+03	 3.716399902E+03
 1.200465734E+03	 3.720199951E+03
 1.201015990E+03	 3.724800049E+03
 1.201566191E+03	 3.742000000E+03
 1.202116334E+03	 3.687199951E+03
 1.202666421E+03	 3.756199951E+03
 1.203216452E+03	 3.717399902E+03
 1.203766425E+03	 3.726600098E+03
 1.204316343E+03	 3.722800049E+03
 1.204866203E+03	 3.739600098E+03
 1.205416007E+03	 3.741800049E+03
 1.205965754E+03	 3.771600098E+03
 1.206515445E+03	 3.744600098E+03
 1.207065079E+03	 3.733600098E+03
 1.207614657E+03	 3.744600098E+03
 1.208164177E+03	 3.736600098E+03
 1.208713642E+03	 3.758399902E+03
 1.209263050E+03	 3.778800049E+03
 1.209812401E+03	 3.747399902E+03
 1.210361695E+03	 3.743199951E+03
 1.210910933E+03	 3.751800049E+03
 1.211460115E+03	 3.769399902E+03
 1.212009240E+03	 3.777600098E+03
 1.212558308E+03	 3.766600098E+03
 1.213107320E+03	 3.791600098E+03
 1.213656275E+03	 3.767800049E+03
 1.214205174E+03	 3.763800049E+03
 1.214754016E+03	 3.810800049E+03
 1.215302801E+03	 3.805199951E+03
 1.215851530E+03	 3.771800049E+03
 1.216400203E+03	 3.794000000E+03
 1.216948819E+03	 3.788800049E+03
 1.217497378E+03	 3.802399902E+03
 1.218045881E+03	 3.789800049E+03
 1.218594327E+03	 3.801000000E+03
 1.219142717E+03	 3.806399902E+03
 1.219691051E+03	 3.820399902E+03
 1.220239327E+03	 3.788600098E+03
 1.220787548E+03	 3.826800049E+03
 1.221335712E+03	 3.833399902E+03
 1.221883819E+03	 3.811600098E+03
 1.222431870E+03	 3.819399902E+03
 1.222979864E+03	 3.829600098E+03
 1.223527802E+03	 3.830600098E+03
 1.224075683E+03	 3.871600098E+03
 1.224623508E+03	 3.835800049E+03
 1.225171277E+03	 3.824399902E+03
 1.225718989E+03	 3.837399902E+03
 1.226266644E+03	 3.851600098E+03
 1.226814243E+03	 3.827000000E+03
 1.227361786E+03	 3.841800049E+03
 1.227909272E+03	 3.871199951E+03
 1.228456702E+03	 3.830000000E+03
 1.229004075E+03	 3.865800049E+03
 1.229551392E+03	 3.852000000E+03
 1.230098652E+03	 3.852600098E+03
 1.230645856E+03	 3.841800049E+03
 1.231193003E+03	 3.879399902E+03
 1.231740094E+03	 3.839199951E+03
 1.232287129E+03	 3.873199951E+03
 1.232834107E+03	 3.905800049E+03
 1.233381029E+03	 3.885600098E+03
 1.233927894E+03	 3.871600098E+03
 1.234474703E+03	 3.874199951E+03
 1.235021455E+03	 3.892199951E+03
 1.235568151E+03	 3.897199951E+03
 1.236114791E+03	 3.872800049E+03
 1.236661374E+03	 3.914800049E+03
 1.237207901E+03	 3.890000000E+03
 1.237754372E+03	 3.920600098E+03
 1.238300786E+03	 3.911800049E+03
 1.238847144E+03	 3.920199951E+03
 1.239393445E+03	 3.910199951E+03
 1.239939690E+03	 3.916000000E+03
 1.240485879E+03	 3.920800049E+03
 1.241032011E+03	 3.932399902E+03
 1.241578087E+03	 3.937399902E+03
 1.242124106E+03	 3.929600098E+03
 1.242670070E+03	 3.950800049E+03
 1.243215976E+03	 3.922000000E+03
 1.243761827E+03	 3.907800049E+03
 1.244307621E+03	 3.954600098E+03
 1.244853359E+03	 3.963600098E+03
 1.245399040E+03	 3.959199951E+03
 1.245944665E+03	 3.955000000E+03
 1.246490234E+03	 3.970600098E+03
 1.247035746E+03	 3.983600098E+03
 1.247581203E+03	 3.971000000E+03
 1.248126602E+03	 3.949199951E+03
 1.248671946E+03	 3.952399902E+03
 1.249217233E+03	 3.967399902E+03
 1.249762464E+03	 3.979199951E+03
 1.250307638E+03	 3.972600098E+03
 1.250852757E+03	 3.961600098E+03
 1.251397819E+03	 3.989399902E+03
 1.251942824E+03	 3.947600098E+03
 1.252487774E+03	 3.990399902E+03
 1.253032667E+03	 3.988399902E+03
 1.253577503E+03	 4.024199951E+03
 1.254122284E+03	 4.003399902E+03
 1.254667008E+03	 4.001000000E+03
 1.255211676E+03	 3.983399902E+03
 1.255756288E+03	 4.026199951E+03
 1.256300843E+03	 4.003399902E+03
 1.256845342E+03	 4.009800049E+03
 1.257389785E+03	 4.024199951E+03
 1.257934172E+03	 4.031399902E+03
 1.258478502E+03	 4.007000000E+03
 1.259022776E+03	 4.026600098E+03
 1.259566994E+03	 4.024800049E+03
 1.260111156E+03	 4.025600098E+03
 1.260655261E+03	 4.077199951E+03
 1.261199311E+03	 4.050399902E+03
 1.261743304E+03	 4.029199951E+03
 1.262287240E+03	 4.033399902E+03
 1.262831121E+03	 4.028600098E+03
 1.263374945E+03	 4.023800049E+03
 1.263918713E+03	 4.035399902E+03
 1.264462425E+03	 4.071600098E+03
 1.265006081E+03	 4.039600098E+03
 1.265549680E+03	 4.081199951E+03
 1.266093223E+03	 4.071399902E+03
 1.266636711E+03	 4.041600098E+03
 1.267180141E+03	 4.094399902E+03
 1.267723516E+03	 4.059399902E+03
 1.268266835E+03	 4.077000000E+03
 1.268810097E+03	 4.060600098E+03
 1.269353303E+03	 4.080000000E+03
 1.269896453E+03	 4.059399902E+03
 1.270439547E+03	 4.077800049E+03
 1.270982584E+03	 4.078199951E+03
 1.271525566E+03	 4.091800049E+03
 1.272068491E+03	 4.121000000E+03
 1.272611360E+03	 4.081399902E+03
 1.273154173E+03	 4.073000000E+03
 1.273696930E+03	 4.130799805E+03
 1.274239631E+03	 4.113200195E+03
 1.274782275E+03	 4.113200195E+03
 1.275324864E+03	 4.139799805E+03
 1.275867396E+03	 4.128799805E+03
 1.276409872E+03	 4.085199951E+03
 1.276952292E+03	 4.127799805E+03
 1.277494656E+03	 4.118799805E+03
 1.278036964E+03	 4.087199951E+03
 1.278579215E+03	 4.138399902E+03
 1.279121411E+03	 4.146600098E+03
 1.279663550E+03	 4.134000000E+03
 1.280205634E+03	 4.108799805E+03
 1.280747661E+03	 4.103200195E+03
 1.281289632E+03	 4.165000000E+03
 1.281831547E+03	 4.164799805E+03
 1.282373406E+03	 4.111600098E+03
 1.282915209E+03	 4.181000000E+03
 1.283456955E+03	 4.103799805E+03
 1.283998646E+03	 4.147600098E+03
 1.284540281E+03	 4.185600098E+03
 1.285081859E+03	 4.235000000E+03
 1.285623381E+03	 4.347600098E+03
 1.286164848E+03	 4.281200195E+03
 1.286706258E+03	 4.186799805E+03
 1.287247612E+03	 4.169600098E+03
 1.287788911E+03	 4.157000000E+03
 1.288330153E+03	 4.164000000E+03
 1.288871339E+03	 4.174399902E+03
 1.289412469E+03	 4.188799805E+03
 1.289953543E+03	 4.145600098E+03
 1.290494561E+03	 4.177200195E+03
 1.291035523E+03	 4.154799805E+03
 1.291576428E+03	 4.174200195E+03
 1.292117278E+03	 4.180600098E+03
 1.292658072E+03	 4.196399902E+03
 1.293198810E+03	 4.162399902E+03
 1.293739492E+03	 4.178200195E+03
 1.294280118E+03	 4.219200195E+03
 1.294820687E+03	 4.184600098E+03
 1.295361201E+03	 4.220200195E+03
 1.295901659E+03	 4.205399902E+03
 1.296442061E+03	 4.178200195E+03
 1.296982406E+03	 4.170600098E+03
 1.297522696E+03	 4.227799805E+03
 1.298062930E+03	 4.207200195E+03
 1.298603108E+03	 4.204600098E+03
 1.299143229E+03	 4.208799805E+03
 1.299683295E+03	 4.239000000E+03
 1.300223305E+03	 4.215000000E+03
 1.300763259E+03	 4.251799805E+03
 1.301303157E+03	 4.184200195E+03
 1.301842999E+03	 4.229399902E+03
 1.302382785E+03	 4.242399902E+03
 1.302922515E+03	 4.220000000E+03
 1.303462189E+03	 4.217000000E+03
 1.304001807E+03	 4.256600098E+03
 1.304541369E+03	 4.231000000E+03
 1.305080875E+03	 4.247799805E+03
 1.305620326E+03	 4.245799805E+03
 1.306159720E+03	 4.262000000E+03
 1.306699058E+03	 4.236399902E+03
 1.307238341E+03	 4.266799805E+03
 1.307777567E+03	 4.257399902E+03
 1.308316738E+03	 4.219399902E+03
 1.308855853E+03	 4.272799805E+03
 1.309394912E+03	 4.246399902E+03
 1.309933915E+03	 4.264600098E+03
 1.310472862E+03	 4.293399902E+03
 1.311011753E+03	 4.286200195E+03
 1.311550588E+03	 4.237399902E+03
 1.312089367E+03	 4.276399902E+03
 1.312628090E+03	 4.302600098E+03
 1.313166758E+03	 4.296600098E+03
 1.313705370E+03	 4.254799805E+03
 1.314243925E+03	 4.292600098E+03
 1.314782425E+03	 4.246600098E+03
 1.315320869E+03	 4.318399902E+03
 1.315859257E+03	 4.294600098E+03
 1.316397589E+03	 4.294200195E+03
 1.316935866E+03	 4.319200195E+03
 1.317474086E+03	 4.274200195E+03
 1.318012251E+03	 4.299600098E+03
 1.318550360E+03	 4.268600098E+03
 1.319088413E+03	 4.326399902E+03
 1.319626410E+03	 4.263200195E+03
 1.320164351E+03	 4.275600098E+03
 1.320702236E+03	 4.318200195E+03
 1.321240066E+03	 4.302000000E+03
 1.321777839E+03	 4.268000000E+03
 1.322315557E+03	 4.348399902E+03
 1.322853219E+03	 4.299799805E+03
 1.323390826E+03	 4.318000000E+03
 1.323928376E+03	 4.313399902E+03
 1.324465871E+03	 4.312600098E+03
 1.325003309E+03	 4.319200195E+03
 1.325540692E+03	 4.341600098E+03
 1.326078020E+03	 4.337200195E+03
 1.326615291E+03	 4.341799805E+03
 1.327152506E+03	 4.322600098E+03
 1.327689666E+03	 4.322200195E+03
 1.328226770E+03	 4.370799805E+03
 1.328763818E+03	 4.346399902E+03
 1.329300811E+03	 4.348000000E+03
 1.329837747E+03	 4.340200195E+03
 1.330374628E+03	 4.360000000E+03
 1.330911453E+03	 4.347600098E+03
 1.331448222E+03	 4.367600098E+03
 1.331984936E+03	 4.326000000E+03
 1.332521594E+03	 4.373600098E+03
 1.333058196E+03	 4.357000000E+03
 1.333594742E+03	 4.395399902E+03
 1.334131232E+03	 4.323399902E+03
 1.334667667E+03	 4.374200195E+03
 1.335204046E+03	 4.354399902E+03
 1.335740369E+03	 4.386399902E+03
 1.336276637E+03	 4.376200195E+03
 1.336812848E+03	 4.399600098E+03
 1.337349004E+03	 4.414000000E+03
 1.337885105E+03	 4.413000000E+03
 1.338421149E+03	 4.418200195E+03
 1.338957138E+03	 4.372000000E+03
 1.339493071E+03	 4.386399902E+03
 1.340028949E+03	 4.387000000E+03
 1.340564770E+03	 4.378399902E+03
 1.341100536E+03	 4.386200195E+03
 1.341636246E+03	 4.401200195E+03
 1.342171901E+03	 4.371200195E+03
 1.342707500E+03	 4.406200195E+03
 1.343243043E+03	 4.375799805E+03
 1.343778530E+03	 4.393799805E+03
 1.344313962E+03	 4.395399902E+03
 1.344849338E+03	 4.432000000E+03
 1.345384659E+03	 4.392600098E+03
 1.345919923E+03	 4.443000000E+03
 1.346455133E+03	 4.402200195E+03
 1.346990286E+03	 4.426399902E+03
 1.347525384E+03	 4.423799805E+03
 1.348060426E+03	 4.425200195E+03
 1.348595412E+03	 4.405600098E+03
 1.349130343E+03	 4.393799805E+03
 1.349665218E+03	 4.401799805E+03
 1.350200037E+03	 4.422600098E+03
 1.350734801E+03	 4.419600098E+03
 1.351269509E+03	 4.440200195E+03
 1.351804162E+03	 4.432799805E+03
 1.352338758E+03	 4.426200195E+03
 1.352873300E+03	 4.440000000E+03
 1.353407785E+03	 4.414000000E+03
 1.353942215E+03	 4.478000000E+03
 1.354476589E+03	 4.402600098E+03
 1.355010908E+03	 4.451000000E+03
 1.355545171E+03	 4.428399902E+03
 1.356079379E+03	 4.433600098E+03
 1.356613530E+03	 4.454200195E+03
 1.357147627E+03	 4.484799805E+03
 1.357681667E+03	 4.428799805E+03
 1.358215652E+03	 4.435200195E+03
 1.358749582E+03	 4.453600098E+03
 1.359283456E+03	 4.451200195E+03
 1.359817274E+03	 4.457000000E+03
 1.360351037E+03	 4.460000000E+03
 1.360884744E+03	 4.497399902E+03
 1.361418395E+03	 4.436000000E+03
 1.361951991E+03	 4.449000000E+03
 1.362485531E+03	 4.456200195E+03
 1.363019016E+03	 4.517600098E+03
 1.363552445E+03	 4.484600098E+03
 1.364085819E+03	 4.511200195E+03
 1.364619137E+03	 4.432600098E+03
 1.365152400E+03	 4.469399902E+03
 1.365685607E+03	 4.476000000E+03
 1.366218758E+03	 4.510399902E+03
 1.366751854E+03	 4.502399902E+03
 1.367284894E+03	 4.492600098E+03
 1.367817879E+03	 4.471399902E+03
 1.368350808E+03	 4.490600098E+03
 1.368883682E+03	 4.485000000E+03
 1.369416500E+03	 4.472799805E+03
 1.369949263E+03	 4.520200195E+03
 1.370481970E+03	 4.506399902E+03
 1.371014622E+03	 4.523000000E+03
 1.371547218E+03	 4.491200195E+03
 1.372079758E+03	 4.504000000E+03
 1.372612244E+03	 4.494799805E+03
 1.373144673E+03	 4.535200195E+03
 1.373677047E+03	 4.483799805E+03
 1.374209366E+03	 4.514399902E+03
 1.374741629E+03	 4.488600098E+03
 1.375273836E+03	 4.541600098E+03
 1.375805989E+03	 4.518399902E+03
 1.376338085E+03	 4.566200195E+03
 1.376870126E+03	 4.501200195E+03
 1.377402112E+03	 4.538200195E+03
 1.377934042E+03	 4.532200195E+03
 1.378465917E+03	 4.506600098E+03
 1.378997736E+03	 4.570600098E+03
 1.379529500E+03	 4.515200195E+03
 1.380061208E+03	 4.542000000E+03
 1.380592861E+03	 4.510000000E+03
 1.381124459E+03	 4.548600098E+03
 1.381656000E+03	 4.510200195E+03
 1.382187487E+03	 4.577200195E+03
 1.382718918E+03	 4.539000000E+03
 1.383250294E+03	 4.559399902E+03
 1.383781614E+03	 4.528000000E+03
 1.384312879E+03	 4.566399902E+03
 1.384844088E+03	 4.542200195E+03
 1.385375242E+03	 4.568200195E+03
 1.385906340E+03	 4.543200195E+03
 1.386437383E+03	 4.561200195E+03
 1.386968371E+03	 4.571000000E+03
 1.387499303E+03	 4.559600098E+03
 1.388030180E+03	 4.616399902E+03
 1.388561001E+03	 4.744799805E+03
 1.389091767E+03	 4.930399902E+03
 1.389622478E+03	 4.680000000E+03
 1.390153133E+03	 4.621399902E+03
 1.390683733E+03	 4.532600098E+03
 1.391214277E+03	 4.608399902E+03
 1.391744766E+03	 4.559000000E+03
 1.392275200E+03	 4.589399902E+03
 1.392805578E+03	 4.584200195E+03
 1.393335901E+03	 4.585799805E+03
 1.393866168E+03	 4.545000000E+03
 1.394396381E+03	 4.610600098E+03
 1.394926537E+03	 4.585399902E+03
 1.395456639E+03	 4.595399902E+03
 1.395986685E+03	 4.574200195E+03
 1.396516675E+03	 4.575399902E+03
 1.397046611E+03	 4.593399902E+03
 1.397576491E+03	 4.577200195E+03
 1.398106315E+03	 4.621200195E+03
 1.398636084E+03	 4.594200195E+03
 1.399165798E+03	 4.613799805E+03
 1.399695457E+03	 4.597399902E+03
 1.400225060E+03	 4.623000000E+03
 1.400754608E+03	 4.579000000E+03
 1.401284101E+03	 4.638600098E+03
 1.401813538E+03	 4.583799805E+03
 1.402342920E+03	 4.606000000E+03
 1.402872247E+03	 4.592600098E+03
 1.403401518E+03	 4.605399902E+03
 1.403930734E+03	 4.589799805E+03
 1.404459895E+03	 4.660200195E+03
 1.404989000E+03	 4.637399902E+03
 1.405518050E+03	 4.623799805E+03
 1.406047045E+03	 4.637000000E+03
 1.406575984E+03	 4.630200195E+03
 1.407104869E+03	 4.650799805E+03
 1.407633697E+03	 4.637799805E+03
 1.408162471E+03	 4.673200195E+03
 1.408691189E+03	 4.653799805E+03
 1.409219852E+03	 4.655600098E+03
 1.409748460E+03	 4.639799805E+03
 1.410277013E+03	 4.699000000E+03
 1.410805510E+03	 4.624399902E+03
 1.411333952E+03	 4.673399902E+03
 1.411862339E+03	 4.658799805E+03
 1.412390670E+03	 4.651399902E+03
 1.412918946E+03	 4.660399902E+03
 1.413447167E+03	 4.639000000E+03
 1.413975333E+03	 4.682200195E+03
 1.414503444E+03	 4.636399902E+03
 1.415031499E+03	 4.678399902E+03
 1.415559499E+03	 4.665000000E+03
 1.416087444E+03	 4.676200195E+03
 1.416615333E+03	 4.631799805E+03
 1.417143167E+03	 4.637399902E+03
 1.417670947E+03	 4.661600098E+03
 1.418198670E+03	 4.681200195E+03
 1.418726339E+03	 4.650399902E+03
 1.419253952E+03	 4.702000000E+03
 1.419781511E+03	 4.657600098E+03
 1.420309014E+03	 4.657399902E+03
 1.420836461E+03	 4.681600098E+03
 1.421363854E+03	 4.680799805E+03
 1.421891191E+03	 4.683000000E+03
 1.422418474E+03	 4.678399902E+03
 1.422945701E+03	 4.688000000E+03
 1.423472872E+03	 4.664200195E+03
 1.423999989E+03	 4.707399902E+03
 1.424527050E+03	 4.669399902E+03
 1.425054057E+03	 4.705799805E+03
 1.425581008E+03	 4.701600098E+03
 1.426107904E+03	 4.709399902E+03
 1.426634745E+03	 4.712000000E+03
 1.427161530E+03	 4.691399902E+03
 1.427688261E+03	 4.679600098E+03
 1.428214936E+03	 4.723200195E+03
 1.428741556E+03	 4.690000000E+03
 1.429268121E+03	 4.680399902E+03
 1.429794631E+03	 4.729399902E+03
 1.430321085E+03	 4.684399902E+03
 1.430847485E+03	 4.702000000E+03
 1.431373829E+03	 4.698000000E+03
 1.431900118E+03	 4.680399902E+03
 1.432426353E+03	 4.711200195E+03
 1.432952532E+03	 4.733200195E+03
 1.433478655E+03	 4.720799805E+03
 1.434004724E+03	 4.705600098E+03
 1.434530738E+03	 4.719399902E+03
 1.435056696E+03	 4.712399902E+03
 1.435582600E+03	 4.717200195E+03
 1.436108448E+03	 4.700799805E+03
 1.436634241E+03	 4.748000000E+03
 1.437159979E+03	 4.703200195E+03
 1.437685662E+03	 4.711799805E+03
 1.438211290E+03	 4.703600098E+03
 1.438736863E+03	 4.694799805E+03
 1.439262381E+03	 4.693399902E+03
 1.439787843E+03	 4.730600098E+03
 1.440313251E+03	 4.710799805E+03
 1.440838603E+03	 4.692799805E+03
 1.441363900E+03	 4.735200195E+03
 1.441889143E+03	 4.734200195E+03
 1.442414330E+03	 4.705000000E+03
 1.442939462E+03	 4.748000000E+03
 1.443464539E+03	 4.757200195E+03
 1.443989561E+03	 4.696600098E+03
 1.444514528E+03	 4.721799805E+03
 1.445039440E+03	 4.734799805E+03
 1.445564297E+03	 4.712000000E+03
 1.446089099E+03	 4.717200195E+03
 1.446613846E+03	 4.749000000E+03
 1.447138537E+03	 4.709799805E+03
 1.447663174E+03	 4.722399902E+03
 1.448187756E+03	 4.740600098E+03
 1.448712282E+03	 4.762399902E+03
 1.449236754E+03	 4.719000000E+03
 1.449761171E+03	 4.733600098E+03
 1.450285532E+03	 4.721000000E+03
 1.450809839E+03	 4.734799805E+03
 1.451334090E+03	 4.738799805E+03
 1.451858287E+03	 4.754000000E+03
 1.452382428E+03	 4.725200195E+03
 1.452906515E+03	 4.726399902E+03
 1.453430546E+03	 4.725399902E+03
 1.453954523E+03	 4.753399902E+03
 1.454478444E+03	 4.733200195E+03
 1.455002311E+03	 4.763799805E+03
 1.455526123E+03	 4.730000000E+03
 1.456049879E+03	 4.764399902E+03
 1.456573581E+03	 4.731799805E+03
 1.457097227E+03	 4.738000000E+03
 1.457620819E+03	 4.764200195E+03
 1.458144356E+03	 4.762200195E+03
 1.458667837E+03	 4.739799805E+03
 1.459191264E+03	 4.735399902E+03
 1.459714636E+03	 4.747600098E+03
 1.460237952E+03	 4.762399902E+03
 1.460761214E+03	 4.757200195E+03
 1.461284421E+03	 4.734000000E+03
 1.461807573E+03	 4.767200195E+03
 1.462330670E+03	 4.795799805E+03
 1.462853712E+03	 4.779200195E+03
 1.463376699E+03	 4.740799805E+03
 1.463899632E+03	 4.774799805E+03
 1.464422509E+03	 4.749600098E+03
 1.464945331E+03	 4.779600098E+03
 1.465468099E+03	 4.775000000E+03
 1.465990811E+03	 4.760200195E+03
 1.466513469E+03	 4.742399902E+03
 1.467036071E+03	 4.755000000E+03
 1.467558619E+03	 4.762200195E+03
 1.468081112E+03	 4.736000000E+03
 1.468603550E+03	 4.749799805E+03
 1.469125933E+03	 4.735200195E+03
 1.469648261E+03	 4.752399902E+03
 1.470170534E+03	 4.762000000E+03
 1.470692752E+03	 4.729399902E+03
 1.471214916E+03	 4.767799805E+03
 1.471737024E+03	 4.746799805E+03
 1.472259078E+03	 4.754200195E+03
 1.472781077E+03	 4.761200195E+03
 1.473303021E+03	 4.767399902E+03
 1.473824910E+03	 4.758799805E+03
 1.474346744E+03	 4.754399902E+03
 1.474868523E+03	 4.777000000E+03
 1.475390248E+03	 4.756600098E+03
 1.475911917E+03	 4.731399902E+03
 1.476433532E+03	 4.758399902E+03
 1.476955092E+03	 4.761399902E+03
 1.477476597E+03	 4.767799805E+03
 1.477998047E+03	 4.745200195E+03
 1.478519442E+03	 4.750399902E+03
 1.479040783E+03	 4.748399902E+03
 1.479562068E+03	 4.743200195E+03
 1.480083299E+03	 4.754200195E+03
 1.480604475E+03	 4.727600098E+03
 1.481125596E+03	 4.788600098E+03
 1.481646663E+03	 4.736799805E+03
 1.482167674E+03	 4.720000000E+03
 1.482688631E+03	 4.733000000E+03
 1.483209533E+03	 4.755000000E+03
 1.483730380E+03	 4.751200195E+03
 1.484251172E+03	 4.780200195E+03
 1.484771909E+03	 4.778200195E+03
 1.485292592E+03	 4.741200195E+03
 1.485813220E+03	 4.759799805E+03
 1.486333793E+03	 4.753600098E+03
 1.486854311E+03	 4.754799805E+03
 1.487374775E+03	 4.755399902E+03
 1.487895183E+03	 4.725200195E+03
 1.488415537E+03	 4.741399902E+03
 1.488935836E+03	 4.780799805E+03
 1.489456081E+03	 4.742399902E+03
 1.489976270E+03	 4.746600098E+03
 1.490496405E+03	 4.762399902E+03
 1.491016485E+03	 4.751399902E+03
 1.491536511E+03	 4.757399902E+03
 1.492056481E+03	 4.738200195E+03
 1.492576397E+03	 4.757399902E+03
 1.493096258E+03	 4.760799805E+03
 1.493616064E+03	 4.770600098E+03
 1.494135816E+03	 4.765600098E+03
 1.494655513E+03	 4.763600098E+03
 1.495175155E+03	 4.742799805E+03
 1.495694742E+03	 4.757200195E+03
 1.496214274E+03	 4.725799805E+03
 1.496733752E+03	 4.723600098E+03
 1.497253175E+03	 4.725200195E+03
 1.497772544E+03	 4.792200195E+03
 1.498291858E+03	 4.763799805E+03
 1.498811116E+03	 4.739000000E+03
 1.499330321E+03	 4.790000000E+03
 1.499849470E+03	 4.752799805E+03
 1.500368565E+03	 4.736000000E+03
 1.500887605E+03	 4.758200195E+03
 1.501406591E+03	 4.787600098E+03
 1.501925521E+03	 4.758000000E+03
 1.502444397E+03	 4.752000000E+03
 1.502963219E+03	 4.762200195E+03
 1.503481985E+03	 4.795000000E+03
 1.504000697E+03	 4.777000000E+03
 1.504519355E+03	 4.770200195E+03
 1.505037957E+03	 4.796200195E+03
 1.505556505E+03	 4.775399902E+03
 1.506074999E+03	 4.768600098E+03
 1.506593437E+03	 4.774000000E+03
 1.507111821E+03	 4.749000000E+03
 1.507630150E+03	 4.763600098E+03
 1.508148425E+03	 4.737000000E+03
 1.508666645E+03	 4.742600098E+03
 1.509184810E+03	 4.754600098E+03
 1.509702921E+03	 4.719000000E+03
 1.510220977E+03	 4.762799805E+03
 1.510738979E+03	 4.760799805E+03
 1.511256925E+03	 4.763399902E+03
 1.511774817E+03	 4.795799805E+03
 1.512292655E+03	 4.777799805E+03
 1.512810438E+03	 4.743200195E+03
 1.513328166E+03	 4.777000000E+03
 1.513845840E+03	 4.752799805E+03
 1.514363459E+03	 4.748000000E+03
 1.514881023E+03	 4.750399902E+03
 1.515398533E+03	 4.751000000E+03
 1.515915988E+03	 4.780799805E+03
 1.516433389E+03	 4.724000000E+03
 1.516950734E+03	 4.743799805E+03
 1.517468026E+03	 4.741399902E+03
 1.517985263E+03	 4.756000000E+03
 1.518502445E+03	 4.744000000E+03
 1.519019572E+03	 4.756399902E+03
 1.519536645E+03	 4.765399902E+03
 1.520053664E+03	 4.750200195E+03
 1.520570628E+03	 4.734000000E+03
 1.521087537E+03	 4.742600098E+03
 1.521604392E+03	 4.747600098E+03
 1.522121192E+03	 4.748799805E+03
 1.522637937E+03	 4.780399902E+03
 1.523154628E+03	 4.766600098E+03
 1.523671265E+03	 4.758799805E+03
 1.524187847E+03	 4.744200195E+03
 1.524704374E+03	 4.758399902E+03
 1.525220847E+03	 4.772600098E+03
 1.525737265E+03	 4.753399902E+03
 1.526253629E+03	 4.778399902E+03
 1.526769938E+03	 4.797200195E+03
 1.527286192E+03	 4.754600098E+03
 1.527802392E+03	 4.752600098E+03
 1.528318538E+03	 4.770399902E+03
 1.528834629E+03	 4.801600098E+03
 1.529350666E+03	 4.760799805E+03
 1.529866648E+03	 4.752200195E+03
 1.530382575E+03	 4.781399902E+03
 1.530898448E+03	 4.745399902E+03
 1.531414266E+03	 4.799399902E+03
 1.531930030E+03	 4.765600098E+03
 1.532445740E+03	 4.781200195E+03
 1.532961395E+03	 4.787399902E+03
 1.533476995E+03	 4.789600098E+03
 1.533992541E+03	 4.819799805E+03
 1.534508033E+03	 4.776200195E+03
 1.535023470E+03	 4.762799805E+03
 1.535538852E+03	 4.774200195E+03
 1.536054180E+03	 4.762799805E+03
 1.536569454E+03	 4.779000000E+03
 1.537084673E+03	 4.833200195E+03
 1.537599837E+03	 4.772399902E+03
 1.538114947E+03	 4.779200195E+03
 1.538630003E+03	 4.778399902E+03
 1.539145004E+03	 4.790799805E+03
 1.539659951E+03	 4.787799805E+03
 1.540174843E+03	 4.754200195E+03
 1.540689681E+03	 4.775600098E+03
 1.541204465E+03	 4.761000000E+03
 1.541719194E+03	 4.795600098E+03
 1.542233868E+03	 4.793000000E+03
 1.542748488E+03	 4.800399902E+03
 1.543263054E+03	 4.774600098E+03
 1.543777565E+03	 4.812000000E+03
 1.544292022E+03	 4.805200195E+03
 1.544806424E+03	 4.785600098E+03
 1.545320772E+03	 4.770600098E+03
 1.545835066E+03	 4.770200195E+03
 1.546349305E+03	 4.788200195E+03
 1.546863489E+03	 4.788799805E+03
 1.547377620E+03	 4.820399902E+03
 1.547891696E+03	 4.786799805E+03
 1.548405717E+03	 4.837399902E+03
 1.548919684E+03	 4.770000000E+03
 1.549433597E+03	 4.808200195E+03
 1.549947455E+03	 4.783399902E+03
 1.550461259E+03	 4.804000000E+03
 1.550975009E+03	 4.791600098E+03
 1.551488704E+03	 4.808000000E+03
 1.552002345E+03	 4.817000000E+03
 1.552515931E+03	 4.779600098E+03
 1.553029463E+03	 4.787200195E+03
 1.553542941E+03	 4.782399902E+03
 1.554056364E+03	 4.820000000E+03
 1.554569733E+03	 4.763000000E+03
 1.555083048E+03	 4.787200195E+03
 1.555596308E+03	 4.810000000E+03
 1.556109514E+03	 4.794799805E+03
 1.556622665E+03	 4.780200195E+03
 1.557135762E+03	 4.783399902E+03
 1.557648805E+03	 4.810000000E+03
 1.558161794E+03	 4.770000000E+03
 1.558674728E+03	 4.791200195E+03
 1.559187608E+03	 4.784200195E+03
 1.559700433E+03	 4.785200195E+03
 1.560213205E+03	 4.784000000E+03
 1.560725921E+03	 4.812000000E+03
 1.561238584E+03	 4.811399902E+03
 1.561751192E+03	 4.795799805E+03
 1.562263746E+03	 4.834799805E+03
 1.562776246E+03	 4.784600098E+03
 1.563288691E+03	 4.825600098E+03
 1.563801082E+03	 4.770399902E+03
 1.564313419E+03	 4.845600098E+03
 1.564825701E+03	 4.810799805E+03
 1.565337929E+03	 4.819000000E+03
 1.565850103E+03	 4.774200195E+03
 1.566362223E+03	 4.812000000E+03
 1.566874288E+03	 4.799600098E+03
 1.567386299E+03	 4.833799805E+03
 1.567898256E+03	 4.797600098E+03
 1.568410158E+03	 4.737600098E+03
 1.568922007E+03	 4.817600098E+03
 1.569433800E+03	 4.773000000E+03
 1.569945540E+03	 4.827000000E+03
 1.570457226E+03	 4.802600098E+03
 1.570968857E+03	 4.860399902E+03
 1.571480434E+03	 4.794600098E+03
 1.571991956E+03	 4.789799805E+03
 1.572503425E+03	 4.803000000E+03
 1.573014839E+03	 4.805600098E+03
 1.573526199E+03	 4.806200195E+03
 1.574037505E+03	 4.768399902E+03
 1.574548756E+03	 4.865200195E+03
 1.575059953E+03	 4.801600098E+03
 1.575571096E+03	 4.788399902E+03
 1.576082185E+03	 4.782000000E+03
 1.576593220E+03	 4.825799805E+03
 1.577104200E+03	 4.774399902E+03
 1.577615126E+03	 4.807000000E+03
 1.578125998E+03	 4.777399902E+03
 1.578636816E+03	 4.745000000E+03
 1.579147580E+03	 4.802399902E+03
 1.579658289E+03	 4.762000000E+03
 1.580168944E+03	 4.804399902E+03
 1.580679545E+03	 4.765200195E+03
 1.581190092E+03	 4.797399902E+03
 1.581700585E+03	 4.762000000E+03
 1.582211023E+03	 4.766200195E+03
 1.582721407E+03	 4.792399902E+03
 1.583231737E+03	 4.765799805E+03
 1.583742013E+03	 4.805399902E+03
 1.584252235E+03	 4.769799805E+03
 1.584762403E+03	 4.790799805E+03
 1.585272516E+03	 4.785600098E+03
 1.585782575E+03	 4.805399902E+03
 1.586292581E+03	 4.770399902E+03
 1.586802532E+03	 4.827600098E+03
 1.587312428E+03	 4.788000000E+03
 1.587822271E+03	 4.787600098E+03
 1.588332060E+03	 4.813399902E+03
 1.588841794E+03	 4.755399902E+03
 1.589351474E+03	 4.817799805E+03
 1.589861100E+03	 4.737600098E+03
 1.590370672E+03	 4.811399902E+03
 1.590880190E+03	 4.754399902E+03
 1.591389654E+03	 4.812399902E+03
 1.591899064E+03	 4.753200195E+03
 1.592408419E+03	 4.790600098E+03
