1042.452273	1131.199951
1043.018714	1135.199951
1043.585098	1115.400024
1044.151424	1137.0
1044.717692	1125.599976
1045.283903	1132.800049
1045.850056	1127.800049
1046.416151	1118.400024
1046.982188	1126.0
1047.548167	1135.599976
1048.114089	1125.400024
1048.679953	1118.400024
1049.24576	1120.599976
1049.811509	1112.400024
1050.3772	1127.199951
1050.942833	1126.0
1051.508408	1119.0
1052.073926	1113.0
1052.639387	1122.599976
1053.204789	1119.0
1053.770134	1117.599976
1054.335421	1106.800049
1054.900651	1104.0
1055.465823	1119.0
1056.030937	1109.0
1056.595993	1107.400024
1057.160992	1102.599976
1057.725934	1115.800049
1058.290817	1101.199951
1058.855643	1111.400024
1059.420411	1107.199951
1059.985122	1109.599976
1060.549775	1102.800049
1061.114371	1101.400024
1061.678908	1106.599976
1062.243389	1099.599976
1062.807811	1115.0
1063.372176	1112.0
1063.936483	1112.800049
1064.500733	1098.599976
1065.064925	1112.0
1065.62906	1115.599976
1066.193137	1107.800049
1066.757156	1108.0
1067.321118	1112.400024
1067.885022	1112.599976
1068.448869	1104.400024
1069.012658	1108.599976
1069.57639	1103.400024
1070.140063	1101.199951
1070.70368	1113.199951
1071.267239	1114.199951
1071.83074	1103.400024
1072.394184	1104.400024
1072.95757	1107.400024
1073.520899	1105.599976
1074.08417	1119.599976
1074.647383	1106.800049
1075.21054	1116.800049
1075.773638	1104.400024
1076.336679	1112.599976
1076.899663	1105.199951
1077.462589	1118.800049
1078.025457	1111.400024
1078.588268	1120.199951
1079.151022	1113.800049
1079.713718	1116.599976
1080.276356	1100.0
1080.838937	1112.400024
1081.401461	1110.199951
1081.963927	1113.0
1082.526336	1107.400024
1083.088687	1115.400024
1083.650981	1105.199951
1084.213217	1107.400024
1084.775396	1103.800049
1085.337517	1099.599976
1085.899581	1106.400024
1086.461587	1096.800049
1087.023536	1107.400024
1087.585428	1107.400024
1088.147262	1107.199951
1088.709039	1107.599976
1089.270758	1109.599976
1089.83242	1104.599976
1090.394024	1111.800049
1090.955571	1097.800049
1091.517061	1104.800049
1092.078493	1101.800049
1092.639868	1106.0
1093.201185	1096.0
1093.762445	1107.800049
1094.323648	1114.199951
1094.884793	1107.400024
1095.445881	1097.599976
1096.006911	1109.599976
1096.567884	1103.400024
1097.1288	1111.199951
1097.689659	1095.199951
1098.25046	1100.599976
1098.811203	1103.0
1099.37189	1112.800049
1099.932518	1112.400024
1100.49309	1101.400024
1101.053604	1100.199951
1101.614061	1086.0
1102.174461	1105.800049
1102.734803	1096.0
1103.295088	1114.199951
1103.855316	1099.800049
1104.415486	1113.599976
1104.975599	1099.800049
1105.535655	1101.599976
1106.095653	1107.800049
1106.655594	1102.800049
1107.215478	1116.400024
1107.775305	1105.0
1108.335074	1100.599976
1108.894786	1107.0
1109.45444	1096.0
1110.014038	1104.599976
1110.573578	1089.400024
1111.133061	1113.400024
1111.692486	1102.400024
1112.251854	1103.599976
1112.811165	1104.0
1113.370419	1097.400024
1113.929616	1094.599976
1114.488755	1113.800049
1115.047837	1095.599976
1115.606862	1113.400024
1116.16583	1111.599976
1116.72474	1105.0
1117.283593	1101.199951
1117.842389	1112.599976
1118.401128	1104.199951
1118.959809	1097.0
1119.518433	1092.199951
1120.077	1090.0
1120.63551	1097.0
1121.193963	1117.599976
1121.752358	1106.199951
1122.310697	1096.0
1122.868978	1094.599976
1123.427202	1102.800049
1123.985368	1108.400024
1124.543478	1090.599976
1125.10153	1092.199951
1125.659526	1114.599976
1126.217464	1103.0
1126.775345	1107.599976
1127.333168	1100.0
1127.890935	1101.400024
1128.448644	1105.599976
1129.006297	1117.199951
1129.563892	1102.199951
1130.12143	1095.0
1130.678911	1099.800049
1131.236335	1114.599976
1131.793701	1112.0
1132.351011	1104.400024
1132.908263	1113.599976
1133.465458	1099.199951
1134.022597	1106.599976
1134.579678	1109.199951
1135.136702	1097.800049
1135.693669	1102.0
1136.250578	1103.199951
1136.807431	1103.599976
1137.364227	1105.599976
1137.920965	1104.599976
1138.477647	1111.199951
1139.034271	1097.199951
1139.590839	1100.0
1140.147349	1107.199951
1140.703802	1106.800049
1141.260198	1105.599976
1141.816537	1109.800049
1142.37282	1108.800049
1142.929045	1100.599976
1143.485213	1102.199951
1144.041323	1112.0
1144.597377	1100.199951
1145.153374	1103.0
1145.709314	1107.800049
1146.265197	1113.400024
1146.821023	1110.599976
1147.376792	1112.199951
1147.932503	1101.800049
1148.488158	1115.199951
1149.043756	1111.599976
1149.599297	1106.199951
1150.154781	1108.199951
1150.710207	1108.199951
1151.265577	1112.400024
1151.82089	1122.400024
1152.376146	1118.199951
1152.931345	1106.400024
1153.486487	1110.400024
1154.041572	1108.599976
1154.5966	1097.400024
1155.151571	1117.400024
1155.706485	1111.800049
1156.261342	1119.800049
1156.816142	1119.199951
1157.370885	1116.400024
1157.925572	1112.599976
1158.480201	1112.400024
1159.034774	1112.800049
1159.589289	1109.599976
1160.143748	1109.0
1160.698149	1111.199951
1161.252494	1122.599976
1161.806782	1109.0
1162.361013	1117.800049
1162.915187	1116.199951
1163.469304	1112.400024
1164.023364	1119.0
1164.577368	1123.199951
1165.131314	1124.800049
1165.685204	1116.0
1166.239036	1129.800049
1166.792812	1109.800049
1167.346531	1117.800049
1167.900193	1110.199951
1168.453798	1110.800049
1169.007347	1106.599976
1169.560838	1111.800049
1170.114273	1110.800049
1170.66765	1104.800049
1171.220971	1119.400024
1171.774235	1123.400024
1172.327443	1100.800049
1172.880593	1110.0
1173.433687	1116.800049
1173.986723	1106.800049
1174.539703	1107.800049
1175.092626	1125.599976
1175.645493	1115.0
1176.198302	1127.199951
1176.751055	1121.599976
1177.303751	1112.599976
1177.85639	1112.800049
1178.408972	1113.0
1178.961498	1112.599976
1179.513966	1124.400024
1180.066378	1110.0
1180.618733	1119.800049
1181.171032	1123.400024
1181.723273	1108.400024
1182.275458	1108.400024
1182.827586	1129.0
1183.379657	1121.199951
1183.931672	1119.199951
1184.48363	1114.199951
1185.035531	1113.400024
1185.587375	1120.800049
1186.139162	1112.0
1186.690893	1113.199951
1187.242567	1115.800049
1187.794184	1123.199951
1188.345745	1114.0
1188.897249	1119.599976
1189.448696	1113.599976
1190.000086	1120.0
1190.55142	1113.599976
1191.102697	1127.800049
1191.653918	1121.599976
1192.205081	1120.0
1192.756188	1118.199951
1193.307238	1133.199951
1193.858232	1120.800049
1194.409169	1117.199951
1194.960049	1121.400024
1195.510872	1103.0
1196.061639	1123.800049
1196.612349	1117.400024
1197.163003	1117.199951
1197.713599	1120.400024
1198.264139	1114.199951
1198.814623	1130.400024
1199.36505	1129.0
1199.91542	1127.199951
1200.465734	1123.400024
1201.01599	1114.800049
1201.566191	1118.199951
1202.116334	1119.800049
1202.666421	1116.0
1203.216452	1120.599976
1203.766425	1111.199951
1204.316343	1120.199951
1204.866203	1112.0
1205.416007	1128.400024
1205.965754	1119.0
1206.515445	1114.0
1207.065079	1132.800049
1207.614657	1125.199951
1208.164177	1116.599976
1208.713642	1115.400024
1209.26305	1130.400024
1209.812401	1118.199951
1210.361695	1114.199951
1210.910933	1131.400024
1211.460115	1125.800049
1212.00924	1119.400024
1212.558308	1109.400024
1213.10732	1121.599976
1213.656275	1111.0
1214.205174	1113.400024
1214.754016	1117.0
1215.302801	1117.400024
1215.85153	1126.599976
1216.400203	1135.800049
1216.948819	1124.400024
1217.497378	1120.0
1218.045881	1130.599976
1218.594327	1120.0
1219.142717	1124.199951
1219.691051	1112.0
1220.239327	1117.400024
1220.787548	1129.400024
1221.335712	1129.800049
1221.883819	1125.599976
1222.43187	1118.599976
1222.979864	1125.400024
1223.527802	1125.599976
1224.075683	1120.199951
1224.623508	1129.400024
1225.171277	1128.599976
1225.718989	1121.400024
1226.266644	1127.199951
1226.814243	1117.199951
1227.361786	1122.0
1227.909272	1122.199951
1228.456702	1108.599976
1229.004075	1133.199951
1229.551392	1121.599976
1230.098652	1124.0
1230.645856	1123.0
1231.193003	1140.599976
1231.740094	1119.599976
1232.287129	1125.0
1232.834107	1124.400024
1233.381029	1134.199951
1233.927894	1132.599976
1234.474703	1129.0
1235.021455	1132.599976
1235.568151	1128.599976
1236.114791	1137.400024
1236.661374	1128.400024
1237.207901	1118.800049
1237.754372	1123.800049
1238.300786	1125.599976
1238.847144	1136.800049
1239.393445	1119.400024
1239.93969	1121.800049
1240.485879	1130.0
1241.032011	1134.800049
1241.578087	1138.199951
1242.124106	1127.199951
1242.67007	1126.400024
1243.215976	1127.199951
1243.761827	1131.599976
1244.307621	1135.0
1244.853359	1121.0
1245.39904	1134.0
1245.944665	1117.599976
1246.490234	1118.0
1247.035746	1138.599976
1247.581203	1135.599976
1248.126602	1121.800049
1248.671946	1131.0
1249.217233	1127.800049
1249.762464	1141.0
1250.307638	1134.199951
1250.852757	1123.599976
1251.397819	1125.599976
1251.942824	1134.0
1252.487774	1137.400024
1253.032667	1133.199951
1253.577503	1139.0
1254.122284	1128.599976
1254.667008	1129.400024
1255.211676	1130.800049
1255.756288	1120.199951
1256.300843	1133.400024
1256.845342	1127.800049
1257.389785	1133.599976
1257.934172	1131.800049
1258.478502	1134.800049
1259.022776	1137.199951
1259.566994	1128.199951
1260.111156	1153.199951
1260.655261	1131.800049
1261.199311	1134.800049
1261.743304	1142.400024
1262.28724	1137.599976
1262.831121	1142.599976
1263.374945	1140.199951
1263.918713	1139.199951
1264.462425	1142.599976
1265.006081	1150.599976
1265.54968	1158.199951
1266.093223	1155.599976
1266.636711	1143.0
1267.180141	1140.199951
1267.723516	1134.199951
1268.266835	1139.199951
1268.810097	1136.400024
1269.353303	1139.800049
1269.896453	1139.599976
1270.439547	1124.0
1270.982584	1134.199951
1271.525566	1137.199951
1272.068491	1138.0
1272.61136	1145.0
1273.154173	1140.400024
1273.69693	1135.0
1274.239631	1148.400024
1274.782275	1132.199951
1275.324864	1151.400024
1275.867396	1138.400024
1276.409872	1131.599976
1276.952292	1137.800049
1277.494656	1145.599976
1278.036964	1140.599976
1278.579215	1150.800049
1279.121411	1138.599976
1279.66355	1141.199951
1280.205634	1145.400024
1280.747661	1136.800049
1281.289632	1142.199951
1281.831547	1148.0
1282.373406	1141.199951
1282.915209	1151.0
1283.456955	1161.400024
1283.998646	1157.199951
1284.540281	1199.0
1285.081859	1313.400024
1285.623381	1578.599976
1286.164848	1449.0
1286.706258	1213.800049
1287.247612	1172.199951
1287.788911	1144.599976
1288.330153	1142.599976
1288.871339	1146.400024
1289.412469	1149.800049
1289.953543	1137.0
1290.494561	1138.599976
1291.035523	1151.599976
1291.576428	1146.199951
1292.117278	1143.0
1292.658072	1139.400024
1293.19881	1136.0
1293.739492	1136.599976
1294.280118	1145.199951
1294.820687	1150.800049
1295.361201	1147.199951
1295.901659	1145.800049
1296.442061	1140.599976
1296.982406	1144.199951
1297.522696	1144.0
1298.06293	1141.599976
1298.603108	1149.400024
1299.143229	1140.400024
1299.683295	1147.800049
1300.223305	1141.0
1300.763259	1136.0
1301.303157	1149.0
1301.842999	1141.0
1302.382785	1145.800049
1302.922515	1136.800049
1303.462189	1153.400024
1304.001807	1140.0
1304.541369	1151.0
1305.080875	1142.0
1305.620326	1133.400024
1306.15972	1150.800049
1306.699058	1152.199951
1307.238341	1147.400024
1307.777567	1144.0
1308.316738	1144.599976
1308.855853	1139.0
1309.394912	1136.800049
1309.933915	1137.199951
1310.472862	1148.800049
1311.011753	1146.400024
1311.550588	1132.0
1312.089367	1142.800049
1312.62809	1132.0
1313.166758	1143.800049
1313.70537	1147.400024
1314.243925	1138.400024
1314.782425	1136.599976
1315.320869	1139.199951
1315.859257	1143.800049
1316.397589	1131.0
1316.935866	1158.599976
1317.474086	1147.0
1318.012251	1138.199951
1318.55036	1139.800049
1319.088413	1139.400024
1319.62641	1123.199951
1320.164351	1145.199951
1320.702236	1144.0
1321.240066	1139.199951
1321.777839	1140.599976
1322.315557	1144.599976
1322.853219	1144.800049
1323.390826	1160.0
1323.928376	1170.599976
1324.465871	1156.400024
1325.003309	1137.800049
1325.540692	1144.800049
1326.07802	1148.0
1326.615291	1140.599976
1327.152506	1149.400024
1327.689666	1146.800049
1328.22677	1145.599976
1328.763818	1152.599976
1329.300811	1151.199951
1329.837747	1138.599976
1330.374628	1161.599976
1330.911453	1139.0
1331.448222	1145.400024
1331.984936	1145.199951
1332.521594	1142.800049
1333.058196	1148.800049
1333.594742	1143.400024
1334.131232	1135.800049
1334.667667	1145.800049
1335.204046	1147.0
1335.740369	1149.199951
1336.276637	1156.199951
1336.812848	1143.0
1337.349004	1151.400024
1337.885105	1144.599976
1338.421149	1151.0
1338.957138	1145.599976
1339.493071	1146.800049
1340.028949	1146.800049
1340.56477	1142.0
1341.100536	1148.599976
1341.636246	1155.800049
1342.171901	1147.199951
1342.7075	1156.599976
1343.243043	1151.0
1343.77853	1146.199951
1344.313962	1148.599976
1344.849338	1144.599976
1345.384659	1140.599976
1345.919923	1157.800049
1346.455133	1155.400024
1346.990286	1151.800049
1347.525384	1150.0
1348.060426	1144.599976
1348.595412	1156.400024
1349.130343	1142.800049
1349.665218	1154.599976
1350.200037	1154.400024
1350.734801	1154.199951
1351.269509	1152.599976
1351.804162	1148.0
1352.338758	1152.599976
1352.8733	1147.199951
1353.407785	1151.199951
1353.942215	1146.800049
1354.476589	1155.400024
1355.010908	1155.0
1355.545171	1144.800049
1356.079379	1140.599976
1356.61353	1134.800049
1357.147627	1152.0
1357.681667	1150.400024
1358.215652	1150.400024
1358.749582	1155.400024
1359.283456	1154.0
1359.817274	1158.199951
1360.351037	1144.800049
1360.884744	1147.400024
1361.418395	1147.400024
1361.951991	1146.599976
1362.485531	1150.0
1363.019016	1153.599976
1363.552445	1147.400024
1364.085819	1150.800049
1364.619137	1148.0
1365.1524	1139.199951
1365.685607	1139.599976
1366.218758	1157.800049
1366.751854	1151.0
1367.284894	1153.599976
1367.817879	1149.199951
1368.350808	1141.599976
1368.883682	1152.800049
1369.4165	1140.0
1369.949263	1169.599976
1370.48197	1169.400024
1371.014622	1155.400024
1371.547218	1152.0
1372.079758	1158.199951
1372.612244	1146.199951
1373.144673	1148.599976
1373.677047	1143.0
1374.209366	1152.0
1374.741629	1152.599976
1375.273836	1149.400024
1375.805989	1154.400024
1376.338085	1168.400024
1376.870126	1160.599976
1377.402112	1149.400024
1377.934042	1148.199951
1378.465917	1153.199951
1378.997736	1140.800049
1379.5295	1146.0
1380.061208	1161.199951
1380.592861	1155.599976
1381.124459	1160.800049
1381.656	1150.199951
1382.187487	1154.800049
1382.718918	1164.599976
1383.250294	1165.400024
1383.781614	1156.400024
1384.312879	1152.199951
1384.844088	1147.0
1385.375242	1163.199951
1385.90634	1166.0
1386.437383	1178.599976
1386.968371	1187.199951
1387.499303	1202.0
1388.03018	1251.800049
1388.561001	1580.599976
1389.091767	2006.0
1389.622478	1439.400024
1390.153133	1217.199951
1390.683733	1179.599976
1391.214277	1181.400024
1391.744766	1159.0
1392.2752	1172.199951
1392.805578	1157.199951
1393.335901	1159.199951
1393.866168	1162.199951
1394.396381	1162.800049
1394.926537	1158.0
1395.456639	1161.0
1395.986685	1151.800049
1396.516675	1155.400024
1397.046611	1166.0
1397.576491	1153.0
1398.106315	1157.800049
1398.636084	1153.199951
1399.165798	1166.199951
1399.695457	1156.800049
1400.22506	1163.199951
1400.754608	1158.199951
1401.284101	1164.0
1401.813538	1154.599976
1402.34292	1166.400024
1402.872247	1150.400024
1403.401518	1159.0
1403.930734	1169.800049
1404.459895	1161.199951
1404.989	1168.599976
1405.51805	1157.199951
1406.047045	1158.800049
1406.575984	1158.800049
1407.104869	1160.199951
1407.633697	1161.0
1408.162471	1170.400024
1408.691189	1162.0
1409.219852	1169.800049
1409.74846	1195.800049
1410.277013	1217.599976
1410.80551	1207.400024
1411.333952	1190.599976
1411.862339	1164.199951
1412.39067	1180.800049
1412.918946	1156.599976
1413.447167	1153.0
1413.975333	1164.400024
1414.503444	1173.800049
1415.031499	1162.800049
1415.559499	1171.400024
1416.087444	1169.800049
1416.615333	1159.199951
1417.143167	1163.800049
1417.670947	1161.800049
1418.19867	1158.400024
1418.726339	1164.400024
1419.253952	1170.0
1419.781511	1160.0
1420.309014	1160.0
1420.836461	1159.599976
1421.363854	1168.599976
1421.891191	1170.0
1422.418474	1161.800049
1422.945701	1157.400024
1423.472872	1162.199951
1423.999989	1168.199951
1424.52705	1167.199951
1425.054057	1168.800049
1425.581008	1163.599976
1426.107904	1179.0
1426.634745	1161.800049
1427.16153	1173.199951
1427.688261	1160.199951
1428.214936	1174.400024
1428.741556	1161.599976
1429.268121	1159.800049
1429.794631	1172.400024
1430.321085	1167.800049
1430.847485	1174.400024
1431.373829	1174.199951
1431.900118	1165.0
1432.426353	1162.199951
1432.952532	1156.199951
1433.478655	1161.199951
1434.004724	1169.599976
1434.530738	1162.800049
1435.056696	1163.199951
1435.5826	1157.199951
1436.108448	1160.0
1436.634241	1153.800049
1437.159979	1165.800049
1437.685662	1160.199951
1438.21129	1169.800049
1438.736863	1169.800049
1439.262381	1167.199951
1439.787843	1164.199951
1440.313251	1163.400024
1440.838603	1161.800049
1441.3639	1175.0
1441.889143	1164.800049
1442.41433	1169.400024
1442.939462	1158.400024
1443.464539	1159.800049
1443.989561	1166.599976
1444.514528	1155.800049
1445.03944	1169.0
1445.564297	1173.400024
1446.089099	1163.400024
1446.613846	1158.400024
1447.138537	1170.599976
1447.663174	1158.0
1448.187756	1164.400024
1448.712282	1158.400024
1449.236754	1170.199951
1449.761171	1154.0
1450.285532	1163.800049
1450.809839	1161.199951
1451.33409	1162.0
1451.858287	1164.599976
1452.382428	1161.199951
1452.906515	1158.400024
1453.430546	1158.599976
1453.954523	1160.199951
1454.478444	1165.800049
1455.002311	1175.599976
1455.526123	1162.199951
1456.049879	1165.0
1456.573581	1164.599976
1457.097227	1166.800049
1457.620819	1153.400024
1458.144356	1163.199951
1458.667837	1174.0
1459.191264	1172.599976
1459.714636	1159.599976
1460.237952	1161.599976
1460.761214	1159.400024
1461.284421	1158.400024
1461.807573	1160.800049
1462.33067	1150.400024
1462.853712	1175.599976
1463.376699	1162.400024
1463.899632	1165.599976
1464.422509	1159.800049
1464.945331	1161.0
1465.468099	1167.0
1465.990811	1152.0
1466.513469	1160.0
1467.036071	1164.800049
1467.558619	1170.800049
1468.081112	1166.199951
1468.60355	1167.199951
1469.125933	1156.199951
1469.648261	1161.400024
1470.170534	1168.199951
1470.692752	1152.800049
1471.214916	1167.800049
1471.737024	1150.400024
1472.259078	1165.199951
1472.781077	1157.400024
1473.303021	1168.199951
1473.82491	1161.400024
1474.346744	1152.400024
1474.868523	1155.400024
1475.390248	1163.800049
1475.911917	1157.599976
1476.433532	1156.400024
1476.955092	1162.599976
1477.476597	1157.400024
1477.998047	1165.800049
1478.519442	1157.199951
1479.040783	1168.400024
1479.562068	1159.199951
1480.083299	1159.599976
1480.604475	1155.0
1481.125596	1159.400024
1481.646663	1149.800049
1482.167674	1168.800049
1482.688631	1158.800049
1483.209533	1168.400024
1483.73038	1160.599976
1484.251172	1158.199951
1484.771909	1164.0
1485.292592	1153.199951
1485.81322	1155.800049
1486.333793	1151.599976
1486.854311	1151.199951
1487.374775	1149.599976
1487.895183	1146.0
1488.415537	1164.400024
1488.935836	1162.0
1489.456081	1161.400024
1489.97627	1164.800049
1490.496405	1159.0
1491.016485	1160.199951
1491.536511	1152.400024
1492.056481	1150.800049
1492.576397	1159.199951
1493.096258	1161.800049
1493.616064	1152.400024
1494.135816	1157.400024
1494.655513	1153.800049
1495.175155	1154.599976
1495.694742	1155.0
1497.253175	1159.199951
1497.772544	1161.599976
1498.291858	1152.199951
1498.811116	1151.599976
1499.330321	1158.0
1499.84947	1159.199951
1500.368565	1162.599976
1500.887605	1156.599976
1501.406591	1153.800049
1501.925521	1146.199951
1502.444397	1156.0
1502.963219	1162.0
1503.481985	1159.400024
1504.000697	1155.800049
1504.519355	1138.800049
1505.037957	1160.0
1505.556505	1156.800049
1506.074999	1151.400024
1506.593437	1163.599976
1507.111821	1153.400024
1507.63015	1152.199951
1508.148425	1149.599976
1508.666645	1156.199951
1509.18481	1149.199951
1509.702921	1150.199951
1510.220977	1157.400024
1511.774817	1158.0
1512.292655	1152.199951
1512.810438	1150.199951
1513.328166	1153.599976
1513.84584	1165.800049
1514.363459	1144.599976
1514.881023	1163.199951
1515.398533	1143.400024
1515.915988	1147.800049
1516.433389	1141.0
1516.950734	1144.199951
1517.468026	1146.400024
1517.985263	1161.599976
1518.502445	1140.599976
1519.019572	1155.599976
1519.536645	1153.599976
1520.053664	1147.800049
1520.570628	1158.0
1521.087537	1151.0
1521.604392	1159.800049
1522.121192	1136.400024
1522.637937	1168.400024
1523.154628	1158.199951
1523.671265	1136.199951
1524.187847	1148.199951
1524.704374	1145.800049
1525.220847	1146.400024
1525.737265	1153.0
1526.253629	1158.599976
1526.769938	1156.199951
1527.286192	1153.800049
1527.802392	1152.0
1528.318538	1158.800049
1528.834629	1156.400024
1529.350666	1145.400024
1529.866648	1154.0
1530.382575	1148.599976
1530.898448	1159.199951
1531.414266	1162.599976
1531.93003	1149.599976
1532.44574	1154.800049
1532.961395	1154.400024
1533.476995	1157.400024
1533.992541	1155.599976
1534.508033	1154.599976
1535.02347	1149.800049
1535.538852	1145.599976
1536.05418	1155.0
1536.569454	1151.199951
1537.084673	1149.0
1537.599837	1151.800049
1538.114947	1170.599976
1538.630003	1158.0
1539.145004	1159.199951
1539.659951	1151.800049
1540.174843	1141.199951
1540.689681	1144.400024
1541.204465	1151.400024
1541.719194	1159.400024
1542.233868	1148.199951
1542.748488	1154.0
1543.263054	1147.800049
1543.777565	1155.199951
1544.292022	1149.599976
1544.806424	1148.0
1545.320772	1154.800049
1545.835066	1158.800049
1546.349305	1148.800049
1546.863489	1158.599976
1547.37762	1158.400024
1547.891696	1153.400024
1548.405717	1158.0
1548.919684	1159.0
1549.433597	1159.800049
1549.947455	1163.599976
1550.461259	1152.0
1550.975009	1161.0
1551.488704	1153.199951
1552.002345	1154.0
1552.515931	1152.599976
1553.029463	1160.0
1553.542941	1154.800049
1554.056364	1156.400024
1554.569733	1150.0
1555.083048	1155.0
1555.596308	1162.0
1556.109514	1151.199951
1556.622665	1163.0
1557.135762	1156.199951
1557.648805	1157.400024
1558.161794	1163.0
1558.674728	1157.199951
1559.187608	1156.400024
1559.700433	1144.400024
1560.213205	1150.0
1560.725921	1167.199951
1561.238584	1154.599976
1561.751192	1155.400024
1562.263746	1157.400024
1562.776246	1153.0
1563.288691	1155.199951
1563.801082	1145.0
1564.313419	1151.599976
1564.825701	1143.0
1565.337929	1148.599976
1565.850103	1163.199951
1566.362223	1146.599976
1566.874288	1147.599976
1567.386299	1154.0
1567.898256	1144.400024
1568.410158	1161.400024
1568.922007	1154.800049
1569.4338	1148.400024
1569.94554	1153.400024
1570.457226	1139.199951
1570.968857	1162.400024
1571.480434	1158.599976
1571.991956	1163.599976
1572.503425	1153.800049
1573.014839	1157.0
1573.526199	1155.599976
1574.037505	1157.800049
1574.548756	1158.0
1575.059953	1160.199951
1575.571096	1165.400024
1576.082185	1165.0
1576.59322	1166.0
1577.1042	1156.0
1577.615126	1159.0
1578.125998	1145.800049
1578.636816	1161.0
1579.14758	1160.800049
1579.658289	1161.800049
1580.168944	1163.400024
1580.679545	1156.599976
1581.190092	1154.0
1581.700585	1167.0
1582.211023	1165.800049
1582.721407	1158.599976
1583.231737	1152.599976
1583.742013	1161.800049
1584.252235	1160.0
1584.762403	1167.599976
1585.272516	1167.0
1585.782575	1154.0
1586.292581	1151.800049
1586.802532	1162.199951
1587.312428	1158.599976
1587.822271	1154.199951
1588.33206	1165.400024
1588.841794	1151.599976
1589.351474	1161.199951
1589.8611	1159.800049
1590.370672	1166.0
1590.88019	1150.0
1591.389654	1157.199951
1591.899064	1162.0
1592.408419	1151.800049
