1043.018714	14148.7998
1043.585098	14196.59961
1044.151424	14120.40039
1044.717692	14141.40039
1045.283903	14071.7998
1045.850056	14173.0
1046.416151	14003.7998
1046.982188	14178.7998
1047.548167	14027.0
1048.114089	14159.7998
1048.679953	14033.59961
1049.24576	14148.2002
1049.811509	14041.7998
1050.3772	14145.7998
1050.942833	13999.40039
1051.508408	14061.40039
1052.073926	13976.0
1052.639387	14080.0
1053.204789	13982.40039
1053.770134	14068.40039
1054.335421	13926.7998
1054.900651	14058.2002
1055.465823	13911.40039
1056.030937	14091.0
1056.595993	13972.2002
1057.160992	13977.59961
1057.725934	13921.40039
1058.290817	13925.7998
1058.855643	13908.0
1059.420411	14005.0
1059.985122	13885.59961
1060.549775	13951.0
1061.114371	13888.7998
1061.678908	13935.2002
1062.243389	13836.2002
1062.807811	13874.40039
1063.372176	13801.40039
1063.936483	13857.7998
1064.500733	13807.2002
1065.064925	13885.40039
1065.62906	13825.59961
1066.193137	13924.2002
1066.757156	13884.0
1067.321118	13775.40039
1067.885022	13788.59961
1068.448869	13824.59961
1069.012658	13833.0
1069.57639	13801.2002
1070.140063	13793.2002
1070.70368	13829.0
1071.267239	13663.7998
1071.83074	13767.2002
1072.394184	13729.2002
1072.95757	13764.0
1073.520899	13750.7998
1074.08417	13773.0
1074.647383	13744.0
1075.21054	13738.2002
1075.773638	13680.59961
1076.336679	13700.2002
1076.899663	13607.40039
1077.462589	13566.7998
1078.025457	13655.0
1078.588268	13608.40039
1079.151022	13619.59961
1079.713718	13634.2002
1080.276356	13600.2002
1080.838937	13590.7998
1081.401461	13598.40039
1081.963927	13565.0
1082.526336	13569.40039
1083.088687	13529.2002
1083.650981	13522.59961
1084.213217	13499.7998
1084.775396	13530.2002
1085.337517	13490.7998
1085.899581	13476.40039
1086.461587	13439.2002
1087.023536	13585.0
1087.585428	13463.7998
1088.147262	13440.40039
1088.709039	13421.0
1089.270758	13399.2002
1089.83242	13376.2002
1090.394024	13397.0
1090.955571	13280.0
1091.517061	13323.7998
1092.078493	13330.40039
1092.639868	13362.59961
1093.201185	13338.0
1093.762445	13366.40039
1094.323648	13300.7998
1094.884793	13341.0
1095.445881	13280.2002
1096.006911	13266.40039
1096.567884	13235.59961
1097.1288	13248.59961
1097.689659	13208.0
1098.25046	13304.40039
1098.811203	13260.0
1099.37189	13287.59961
1099.932518	13175.0
1100.49309	13229.7998
1101.053604	13086.7998
1101.614061	13116.7998
1102.174461	13097.2002
1102.734803	13104.59961
1103.295088	13111.7998
1103.855316	13037.0
1104.415486	13048.2002
1104.975599	12934.59961
1105.535655	13041.59961
1106.095653	12952.2002
1106.655594	12960.7998
1107.215478	13040.2002
1107.775305	12922.40039
1108.335074	12951.2002
1108.894786	12975.59961
1109.45444	12878.2002
1110.014038	12943.59961
1110.573578	12917.2002
1111.133061	12939.59961
1111.692486	12888.40039
1112.251854	12886.59961
1112.811165	12853.40039
1113.370419	12906.40039
1113.929616	12838.2002
1114.488755	12856.2002
1115.047837	12793.2002
1115.606862	12855.40039
1116.16583	12772.59961
1116.72474	12804.7998
1117.283593	12820.40039
1117.842389	12791.40039
1118.401128	12762.2002
1118.959809	12808.59961
1119.518433	12784.40039
1120.077	12748.0
1120.63551	12715.59961
1121.193963	12901.40039
1121.752358	12775.7998
1122.310697	12752.2002
1122.868978	12616.2002
1123.427202	12756.59961
1123.985368	12680.40039
1124.543478	12707.7998
1125.10153	12652.2002
1125.659526	12703.40039
1126.217464	12627.0
1126.775345	12691.2002
1127.333168	12611.0
1127.890935	12708.59961
1128.448644	12632.2002
1129.006297	12625.0
1129.563892	12521.7998
1130.12143	12646.0
1130.678911	12548.40039
1131.236335	12617.40039
1131.793701	12562.40039
1132.351011	12634.40039
1132.908263	12521.7998
1133.465458	12605.40039
1134.022597	12486.7998
1134.579678	12625.7998
1135.136702	12498.40039
1135.693669	12643.59961
1136.250578	12444.7998
1136.807431	12563.59961
1137.364227	12481.2002
1137.920965	12638.59961
1138.477647	12477.0
1139.034271	12568.0
1139.590839	12412.2002
1140.147349	12511.7998
1140.703802	12450.59961
1141.260198	12560.59961
1141.816537	12479.59961
1142.37282	12512.0
1142.929045	12452.0
1143.485213	12523.0
1144.041323	12444.2002
1144.597377	12486.40039
1145.153374	12422.2002
1145.709314	12494.40039
1146.265197	12386.2002
1146.821023	12490.0
1147.376792	12427.0
1147.932503	12446.40039
1148.488158	12433.7998
1149.043756	12446.0
1149.599297	12455.7998
1150.154781	12474.59961
1150.710207	12472.40039
1151.265577	12477.7998
1151.82089	12376.40039
1152.376146	12478.7998
1152.931345	12423.40039
1153.486487	12416.40039
1154.041572	12378.40039
1154.5966	12374.2002
1155.151571	12344.0
1155.706485	12466.40039
1156.261342	12287.59961
1156.816142	12400.59961
1157.370885	12394.7998
1157.925572	12449.0
1158.480201	12346.59961
1159.034774	12366.40039
1159.589289	12303.40039
1160.143748	12366.59961
1160.698149	12294.0
1161.252494	12330.7998
1161.806782	12296.59961
1162.361013	12296.2002
1162.915187	12313.2002
1163.469304	12282.59961
1164.023364	12255.40039
1164.577368	12277.7998
1165.131314	12313.7998
1165.685204	12262.7998
1166.239036	12254.59961
1166.792812	12225.59961
1167.346531	12294.59961
1167.900193	12245.2002
1168.453798	12230.59961
1169.007347	12215.40039
1169.560838	12204.59961
1170.114273	12270.0
1170.66765	12244.40039
1171.220971	12196.40039
1171.774235	12189.2002
1172.327443	12198.7998
1172.880593	12163.2002
1173.433687	12177.40039
1173.986723	12205.40039
1174.539703	12142.0
1175.092626	12203.40039
1175.645493	12121.2002
1176.198302	12149.0
1176.751055	12133.0
1177.303751	12207.40039
1177.85639	12139.59961
1178.408972	12145.7998
1178.961498	12145.59961
1179.513966	12084.59961
1180.066378	12071.7998
1180.618733	12075.59961
1181.171032	12072.40039
1181.723273	12051.2002
1182.275458	12075.7998
1182.827586	12076.7998
1183.379657	12039.2002
1183.931672	12110.59961
1184.48363	12051.7998
1185.035531	12080.0
1185.587375	11996.7998
1186.139162	12096.0
1186.690893	12072.40039
1187.242567	12037.2002
1187.794184	11997.59961
1188.345745	11978.2002
1188.897249	11991.40039
1189.448696	11999.7998
1190.000086	12021.59961
1190.55142	11988.59961
1191.102697	11972.7998
1191.653918	11983.2002
1192.205081	11997.59961
1192.756188	11952.59961
1193.307238	11929.2002
1193.858232	11913.0
1194.409169	11940.59961
1194.960049	11883.7998
1195.510872	11882.59961
1196.061639	11873.7998
1196.612349	11905.59961
1197.163003	11896.0
1197.713599	11878.0
1198.264139	11857.7998
1198.814623	11878.40039
1199.36505	11836.7998
1199.91542	11835.7998
1200.465734	11822.0
1201.01599	11774.7998
1201.566191	11729.7998
1202.116334	11782.7998
1202.666421	11756.0
1203.216452	11773.59961
1203.766425	11821.2002
1204.316343	11765.40039
1204.866203	11781.0
1205.416007	11786.7998
1205.965754	11770.59961
1206.515445	11702.2002
1207.065079	11714.40039
1207.614657	11725.0
1208.164177	11689.0
1208.713642	11668.7998
1209.26305	11760.59961
1209.812401	11652.40039
1210.361695	11706.2002
1210.910933	11664.59961
1211.460115	11641.40039
1212.00924	11658.59961
1212.558308	11644.2002
1213.10732	11651.40039
1213.656275	11682.2002
1214.205174	11629.0
1214.754016	11598.40039
1215.302801	11579.40039
1215.85153	11579.59961
1216.400203	11585.0
1216.948819	11526.40039
1217.497378	11615.7998
1218.045881	11561.7998
1218.594327	11556.7998
1219.142717	11571.40039
1219.691051	11605.7998
1220.239327	11558.2002
1220.787548	11571.2002
1221.335712	11527.40039
1221.883819	11474.59961
1222.43187	11537.2002
1222.979864	11467.2002
1223.527802	11439.59961
1224.075683	11473.7998
1224.623508	11411.0
1225.171277	11509.7998
1225.718989	11416.7998
1226.266644	11467.2002
1226.814243	11422.7998
1227.361786	11458.59961
1227.909272	11390.7998
1228.456702	11526.2002
1229.004075	11370.7998
1229.551392	11428.7998
1230.098652	11415.7998
1230.645856	11358.2002
1231.193003	11334.40039
1231.740094	11338.7998
1232.287129	11350.59961
1232.834107	11372.59961
1233.381029	11406.59961
1233.927894	11325.59961
1234.474703	11383.40039
1235.021455	11355.0
1235.568151	11384.40039
1236.114791	11290.59961
1236.661374	11358.40039
1237.207901	11260.40039
1237.754372	11296.7998
1238.300786	11252.59961
1238.847144	11317.0
1239.393445	11258.59961
1239.93969	11299.2002
1240.485879	11255.59961
1241.032011	11265.7998
1241.578087	11231.59961
1242.124106	11229.59961
1242.67007	11189.0
1243.215976	11234.40039
1243.761827	11198.2002
1244.307621	11191.2002
1244.853359	11148.40039
1245.39904	11211.7998
1245.944665	11189.7998
1246.490234	11200.2002
1247.035746	11115.40039
1247.581203	11116.7998
1248.126602	11057.2002
1248.671946	11140.59961
1249.217233	11109.2002
1249.762464	11106.0
1250.307638	11143.2002
1250.852757	11072.2002
1251.397819	11124.59961
1251.942824	11028.40039
1252.487774	11143.59961
1253.032667	11096.7998
1253.577503	11093.7998
1254.122284	11026.7998
1254.667008	11034.0
1255.211676	10900.59961
1255.756288	11051.59961
1256.300843	11035.0
1256.845342	11043.2002
1257.389785	10927.40039
1257.934172	10971.2002
1258.478502	11002.59961
1259.022776	10960.40039
1259.566994	10977.0
1260.111156	10961.7998
1260.655261	10933.59961
1261.199311	10974.0
1261.743304	10897.0
1262.28724	10939.7998
1262.831121	10935.59961
1263.374945	10939.0
1263.918713	10897.40039
1264.462425	10909.59961
1265.006081	10940.40039
1265.54968	10969.59961
1266.093223	10896.7998
1266.636711	10888.0
1267.180141	10825.40039
1267.723516	10861.0
1268.266835	10870.59961
1268.810097	10839.7998
1269.353303	10806.0
1269.896453	10879.59961
1270.439547	10782.59961
1270.982584	10817.2002
1271.525566	10759.40039
1272.068491	10817.0
1272.61136	10796.0
1273.154173	10784.40039
1273.69693	10796.7998
1274.239631	10813.0
1274.782275	10797.7998
1275.324864	10762.40039
1275.867396	10697.59961
1276.409872	10711.0
1276.952292	10781.2002
1277.494656	10693.0
1278.036964	10762.40039
1278.579215	10711.40039
1279.121411	10724.7998
1279.66355	10714.2002
1280.205634	10683.40039
1280.747661	10710.2002
1281.289632	10695.59961
1281.831547	10662.0
1282.373406	10665.40039
1282.915209	10653.0
1283.456955	10621.40039
1283.998646	10663.59961
1284.540281	10728.40039
1285.081859	11129.40039
1285.623381	11630.40039
1286.164848	11063.40039
1286.706258	10700.0
1287.247612	10655.2002
1287.788911	10543.7998
1288.330153	10543.40039
1288.871339	10525.7998
1289.412469	10481.40039
1289.953543	10490.7998
1290.494561	10566.2002
1291.035523	10512.0
1291.576428	10457.2002
1292.117278	10514.7998
1292.658072	10512.7998
1293.19881	10483.2002
1293.739492	10472.59961
1294.280118	10447.59961
1294.820687	10520.0
1295.361201	10401.0
1295.901659	10420.0
1296.442061	10419.0
1296.982406	10457.0
1297.522696	10401.7998
1298.06293	10394.59961
1298.603108	10389.0
1299.143229	10388.59961
1299.683295	10477.2002
1300.223305	10416.2002
1300.763259	10382.40039
1301.303157	10355.59961
1301.842999	10380.2002
1302.382785	10322.40039
1302.922515	10361.2002
1303.462189	10298.59961
1304.001807	10328.59961
1304.541369	10308.2002
1305.080875	10426.40039
1305.620326	10278.7998
1306.15972	10339.0
1306.699058	10284.7998
1307.238341	10356.7998
1307.777567	10313.2002
1308.316738	10316.0
1308.855853	10285.0
1309.394912	10351.59961
1309.933915	10262.59961
1310.472862	10256.7998
1311.011753	10281.2002
1311.550588	10222.59961
1312.089367	10238.40039
1312.62809	10227.0
1313.166758	10265.2002
1313.70537	10208.40039
1314.243925	10256.7998
1314.782425	10154.59961
1315.320869	10208.40039
1315.859257	10171.7998
1316.397589	10184.59961
1316.935866	10120.7998
1317.474086	10233.7998
1318.012251	10152.40039
1318.55036	10142.2002
1319.088413	10103.0
1319.62641	10233.59961
1320.164351	10070.2002
1320.702236	10152.0
1321.240066	10075.40039
1321.777839	10152.0
1322.315557	10107.0
1322.853219	10109.0
1323.390826	10122.59961
1323.928376	10128.2002
1324.465871	10116.40039
1325.003309	10082.2002
1325.540692	10073.40039
1326.07802	10064.40039
1326.615291	10135.7998
1327.152506	10013.59961
1327.689666	10125.40039
1328.22677	10042.7998
1328.763818	10071.7998
1329.300811	10022.7998
1329.837747	10086.7998
1330.374628	10020.7998
1330.911453	10097.7998
1331.448222	9995.200195
1331.984936	10058.7998
1332.521594	9990.599609
1333.058196	9936.0
1333.594742	9989.200195
1334.131232	9969.0
1334.667667	9973.799805
1335.204046	10001.59961
1335.740369	9997.799805
1336.276637	9916.599609
1336.812848	10001.59961
1337.349004	9929.400391
1337.885105	10034.2002
1338.421149	9936.799805
1338.957138	9970.599609
1339.493071	9905.400391
1340.028949	9939.200195
1340.56477	9877.799805
1341.100536	9909.799805
1341.636246	9870.799805
1342.171901	9916.400391
1342.7075	9858.799805
1343.243043	9884.799805
1343.77853	9834.0
1344.313962	9900.400391
1344.849338	9854.400391
1345.384659	9839.599609
1345.919923	9860.599609
1346.455133	9808.200195
1346.990286	9854.0
1347.525384	9829.599609
1348.060426	9823.799805
1348.595412	9778.599609
1349.130343	9822.599609
1349.665218	9744.0
1350.200037	9833.599609
1350.734801	9803.799805
1351.269509	9787.0
1351.804162	9708.0
1352.338758	9804.799805
1352.8733	9717.599609
1353.407785	9759.0
1353.942215	9758.599609
1354.476589	9673.200195
1355.010908	9688.200195
1355.545171	9691.599609
1356.079379	9689.799805
1356.61353	9627.400391
1357.147627	9693.599609
1357.681667	9654.799805
1358.215652	9725.599609
1358.749582	9675.400391
1359.283456	9692.799805
1359.817274	9636.0
1360.351037	9643.599609
1360.884744	9599.200195
1361.418395	9640.799805
1361.951991	9594.799805
1362.485531	9690.599609
1363.019016	9579.799805
1363.552445	9653.0
1364.085819	9607.799805
1364.619137	9634.599609
1365.1524	9586.200195
1365.685607	9607.0
1366.218758	9626.0
1366.751854	9582.400391
1367.284894	9614.799805
1367.817879	9533.599609
1368.350808	9532.599609
1368.883682	9489.400391
1369.4165	9614.799805
1369.949263	9509.200195
1370.48197	9585.0
1371.014622	9427.599609
1371.547218	9511.0
1372.079758	9486.200195
1372.612244	9544.599609
1373.144673	9514.200195
1373.677047	9435.599609
1374.209366	9463.0
1374.741629	9482.400391
1375.273836	9419.0
1375.805989	9410.400391
1376.338085	9479.599609
1376.870126	9445.200195
1377.402112	9478.200195
1377.934042	9387.599609
1378.465917	9479.799805
1378.997736	9363.0
1379.5295	9427.799805
1380.061208	9377.200195
1380.592861	9418.799805
1381.124459	9360.400391
1381.656	9384.799805
1382.187487	9308.799805
1382.718918	9355.200195
1383.250294	9382.799805
1383.781614	9334.0
1384.312879	9324.799805
1384.844088	9357.599609
1385.375242	9357.599609
1385.90634	9289.200195
1386.437383	9379.599609
1386.968371	9364.400391
1387.499303	9431.400391
1388.03018	9554.0
1388.561001	10633.40039
1389.091767	10759.59961
1389.622478	9662.799805
1390.153133	9311.400391
1390.683733	9293.400391
1391.214277	9288.400391
1391.744766	9256.599609
1392.2752	9250.799805
1392.805578	9229.799805
1393.335901	9284.400391
1393.866168	9193.0
1394.396381	9257.200195
1394.926537	9236.400391
1395.456639	9273.799805
1395.986685	9154.200195
1396.516675	9206.0
1397.046611	9204.400391
1397.576491	9244.799805
1398.106315	9157.200195
1398.636084	9208.200195
1399.165798	9174.200195
1399.695457	9205.0
1400.22506	9135.799805
1400.754608	9158.0
1401.284101	9167.799805
1401.813538	9141.599609
1402.34292	9189.200195
1402.872247	9108.200195
1403.401518	9188.799805
1403.930734	9082.799805
1404.459895	9211.0
1404.989	9095.799805
1405.51805	9158.799805
1406.047045	9102.0
1406.575984	9153.599609
1407.104869	9109.0
1407.633697	9131.599609
1408.162471	9113.200195
1408.691189	9139.799805
1409.219852	9135.400391
1409.74846	9112.599609
1410.277013	9240.799805
1410.80551	9101.599609
1411.333952	9120.599609
1411.862339	9053.0
1412.39067	9045.400391
1412.918946	8986.200195
1413.447167	9065.200195
1413.975333	9027.799805
1414.503444	9076.599609
1415.031499	9077.799805
1415.559499	9050.200195
1416.087444	9020.599609
1416.615333	9046.599609
1417.143167	9020.0
1417.670947	8995.599609
1418.19867	9047.599609
1418.726339	8956.0
1419.253952	8985.799805
1419.781511	9030.799805
1420.309014	9002.0
1420.836461	9007.400391
1421.363854	9063.799805
1421.891191	8979.400391
1422.418474	9023.400391
1422.945701	8971.400391
1423.472872	9031.200195
1423.999989	8951.799805
1424.52705	8963.200195
1425.054057	9016.599609
1425.581008	8996.599609
1426.107904	9025.799805
1426.634745	8975.799805
1427.16153	9029.200195
1427.688261	8938.400391
1428.214936	9003.400391
1428.741556	8929.400391
1429.268121	8952.599609
1429.794631	8932.200195
1430.321085	8949.200195
1430.847485	8941.400391
1431.373829	8908.200195
1431.900118	8912.0
1432.426353	8925.799805
1432.952532	8837.799805
1433.478655	8882.0
1434.004724	8860.599609
1434.530738	8856.799805
1435.056696	8917.0
1435.5826	8921.400391
1436.108448	8855.0
1436.634241	8871.200195
1437.159979	8887.0
1437.685662	8812.400391
1438.21129	8849.200195
1438.736863	8827.599609
1439.262381	8800.0
1439.787843	8839.200195
1440.313251	8851.799805
1440.838603	8807.799805
1441.3639	8821.0
1441.889143	8808.799805
1442.41433	8803.400391
1442.939462	8806.200195
1443.464539	8802.599609
1443.989561	8802.599609
1444.514528	8772.799805
1445.03944	8776.200195
1445.564297	8760.599609
1446.089099	8841.200195
1446.613846	8777.400391
1447.138537	8715.599609
1447.663174	8787.400391
1448.187756	8737.200195
1448.712282	8783.799805
1449.236754	8761.799805
1449.761171	8734.799805
1450.285532	8764.599609
1450.809839	8744.200195
1451.33409	8762.799805
1451.858287	8713.200195
1452.382428	8713.0
1452.906515	8720.400391
1453.430546	8697.200195
1453.954523	8687.0
1454.478444	8759.200195
1455.002311	8712.400391
1455.526123	8723.400391
1456.049879	8679.599609
1456.573581	8670.400391
1457.097227	8726.799805
1457.620819	8679.599609
1458.144356	8733.599609
1458.667837	8625.200195
1459.191264	8700.799805
1459.714636	8638.400391
1460.237952	8587.599609
1460.761214	8650.799805
1461.284421	8616.200195
1461.807573	8695.200195
1462.33067	8629.400391
1462.853712	8624.400391
1463.376699	8606.0
1463.899632	8643.599609
1464.422509	8601.599609
1464.945331	8616.599609
1465.468099	8565.400391
1465.990811	8564.200195
1466.513469	8565.200195
1467.036071	8590.599609
1467.558619	8544.200195
1468.081112	8611.799805
1468.60355	8554.400391
1469.125933	8545.599609
1469.648261	8563.400391
1470.170534	8499.599609
1470.692752	8524.599609
1471.214916	8517.200195
1471.737024	8517.400391
1472.259078	8472.599609
1472.781077	8519.799805
1473.303021	8515.0
1473.82491	8530.400391
1474.346744	8486.0
1474.868523	8467.200195
1475.390248	8435.799805
1475.911917	8445.400391
1476.433532	8450.400391
1476.955092	8424.0
1477.476597	8458.400391
1477.998047	8437.599609
1478.519442	8443.400391
1479.040783	8437.200195
1479.562068	8419.0
1480.083299	8434.799805
1480.604475	8406.799805
1481.125596	8386.200195
1481.646663	8363.200195
1482.167674	8398.200195
1482.688631	8333.799805
1483.209533	8374.599609
1483.73038	8341.200195
1484.251172	8344.0
1484.771909	8325.400391
1485.292592	8334.799805
1485.81322	8341.799805
1486.333793	8323.200195
1486.854311	8256.599609
1487.374775	8274.799805
1487.895183	8296.799805
1488.415537	8224.799805
1488.935836	8279.400391
1489.456081	8305.400391
1489.97627	8297.400391
1490.496405	8247.799805
1491.016485	8248.400391
1491.536511	8220.200195
1492.056481	8260.599609
1492.576397	8197.799805
1493.096258	8215.200195
1493.616064	8212.200195
1494.135816	8222.599609
1494.655513	8192.0
1495.175155	8194.799805
1495.694742	8195.599609
1496.214274	8216.0
1496.733752	8229.0
1497.253175	8180.0
1497.772544	8140.399902
1498.291858	8239.200195
1498.811116	8219.400391
1499.330321	8193.0
1499.84947	8227.599609
1500.368565	8117.399902
1500.887605	8119.799805
1501.406591	8189.200195
1501.925521	8116.0
1502.444397	8137.799805
1502.963219	8165.799805
1503.481985	8118.799805
1504.000697	8139.799805
1504.519355	8120.799805
1505.037957	8121.0
1505.556505	8136.399902
1506.074999	8052.600098
1506.593437	8064.200195
1507.111821	8099.0
1507.63015	8054.0
1508.148425	8066.0
1508.666645	8088.0
1509.18481	8067.200195
1509.702921	8040.799805
1510.220977	8064.399902
1510.738979	8040.799805
1511.256925	8041.799805
1511.774817	8049.399902
1512.292655	8043.0
1512.810438	8101.799805
1513.328166	8069.600098
1513.84584	8032.799805
1514.363459	8043.399902
1514.881023	8017.600098
1515.398533	8024.799805
1515.915988	8020.600098
1516.433389	8033.200195
1516.950734	8015.200195
1517.468026	8018.200195
1517.985263	7970.799805
1518.502445	7973.0
1519.019572	8018.600098
1519.536645	7997.399902
1520.053664	8029.600098
1520.570628	7942.799805
1521.087537	7971.600098
1521.604392	7973.399902
1522.121192	7993.0
1522.637937	8044.799805
1523.154628	7949.399902
1523.671265	8019.399902
1524.187847	7949.399902
1524.704374	7931.799805
1525.220847	7945.799805
1525.737265	7963.600098
1526.253629	7973.0
1526.769938	7954.799805
1527.286192	7926.0
1527.802392	8016.399902
1528.318538	7903.600098
1528.834629	7973.200195
1529.350666	7955.799805
1529.866648	7900.799805
1530.382575	7896.600098
1530.898448	7921.799805
1531.414266	7936.600098
1531.93003	7902.0
1532.44574	8006.0
1532.961395	7865.399902
1533.476995	7977.600098
1533.992541	7921.399902
1534.508033	7902.200195
1535.02347	7938.0
1535.538852	7930.200195
1536.05418	7945.600098
1536.569454	7969.200195
1537.084673	7893.399902
1537.599837	7899.399902
1538.114947	7920.600098
1538.630003	7894.200195
1539.145004	7924.200195
1539.659951	7918.600098
1540.174843	7917.200195
1540.689681	7887.200195
1541.204465	7925.0
1541.719194	7931.600098
1542.233868	7903.0
1542.748488	7915.0
1543.263054	7889.200195
1543.777565	7868.200195
1544.292022	7865.0
1544.806424	7939.600098
1545.320772	7865.399902
1545.835066	7889.399902
1546.349305	7860.799805
1546.863489	7938.0
1547.37762	7945.399902
1547.891696	7884.200195
1548.405717	7930.600098
1548.919684	7851.799805
1549.433597	7914.600098
1549.947455	7859.600098
1550.461259	7931.399902
1550.975009	7857.600098
1551.488704	7928.399902
1552.002345	8023.200195
1552.515931	7954.799805
1553.029463	7880.399902
1553.542941	7859.399902
1554.056364	7884.799805
1554.569733	7888.200195
1555.083048	7922.0
1555.596308	7824.399902
1556.109514	7913.200195
1556.622665	7784.399902
1557.135762	7878.399902
1557.648805	7834.799805
1558.161794	7880.200195
1558.674728	7893.600098
1559.187608	7856.0
1559.700433	7846.399902
1560.213205	7845.200195
1560.725921	7838.0
1561.238584	7869.600098
1561.751192	7908.200195
1562.263746	7851.0
1562.776246	7793.399902
1563.288691	7811.799805
1563.801082	7844.399902
1564.313419	7797.600098
1564.825701	7786.600098
1565.337929	7805.399902
1565.850103	7794.600098
1566.362223	7861.600098
1566.874288	7782.399902
1567.386299	7882.799805
1567.898256	7764.600098
1568.410158	7788.200195
1568.922007	7777.0
1569.4338	7773.0
1569.94554	7773.600098
1570.457226	7783.0
1570.968857	7802.0
1571.480434	7777.200195
1571.991956	7837.600098
1572.503425	7748.799805
1573.014839	7813.0
1573.526199	7749.0
1574.037505	7785.0
1574.548756	7750.0
1575.059953	7819.600098
1575.571096	7764.600098
1576.082185	7746.200195
1576.59322	7730.0
1577.1042	7727.799805
1577.615126	7766.200195
1578.125998	7686.600098
1578.636816	7731.799805
1579.14758	7705.200195
1579.658289	7737.200195
1580.168944	7699.200195
1580.679545	7656.200195
1581.190092	7658.200195
1581.700585	7679.399902
1582.211023	7715.200195
1582.721407	7627.200195
1583.231737	7711.0
1583.742013	7640.0
1584.252235	7708.600098
1584.762403	7678.399902
1585.272516	7667.0
1585.782575	7644.0
1586.292581	7662.600098
1586.802532	7660.799805
1587.312428	7638.600098
1587.822271	7703.799805
1588.33206	7616.0
1588.841794	7687.600098
1589.351474	7578.600098
1589.8611	7658.399902
1590.370672	7628.0
1590.88019	7609.200195
1591.389654	7652.200195
1591.899064	7609.200195
1592.408419	7667.799805
