 1.042452273E+03	 3.005600098E+03
 1.043018714E+03	 2.978199951E+03
 1.043585098E+03	 2.972000000E+03
 1.044151424E+03	 2.958199951E+03
 1.044717692E+03	 2.968399902E+03
 1.045283903E+03	 2.943399902E+03
 1.045850056E+03	 2.967600098E+03
 1.046416151E+03	 2.971199951E+03
 1.046982188E+03	 2.987800049E+03
 1.047548167E+03	 2.959399902E+03
 1.048114089E+03	 2.983600098E+03
 1.048679953E+03	 2.959399902E+03
 1.049245760E+03	 2.959800049E+03
 1.049811509E+03	 2.947399902E+03
 1.050377200E+03	 2.927399902E+03
 1.050942833E+03	 2.973399902E+03
 1.051508408E+03	 2.928800049E+03
 1.052073926E+03	 2.942800049E+03
 1.052639387E+03	 2.937199951E+03
 1.053204789E+03	 2.940600098E+03
 1.053770134E+03	 2.955000000E+03
 1.054335421E+03	 2.911399902E+03
 1.054900651E+03	 2.939800049E+03
 1.055465823E+03	 2.926600098E+03
 1.056030937E+03	 2.932800049E+03
 1.056595993E+03	 2.969399902E+03
 1.057160992E+03	 2.954000000E+03
 1.057725934E+03	 2.949800049E+03
 1.058290817E+03	 2.952199951E+03
 1.058855643E+03	 2.920000000E+03
 1.059420411E+03	 2.937600098E+03
 1.059985122E+03	 2.926199951E+03
 1.060549775E+03	 2.932600098E+03
 1.061114371E+03	 2.908600098E+03
 1.061678908E+03	 2.904000000E+03
 1.062243389E+03	 2.896399902E+03
 1.062807811E+03	 2.915399902E+03
 1.063372176E+03	 2.918399902E+03
 1.063936483E+03	 2.900399902E+03
 1.064500733E+03	 2.903600098E+03
 1.065064925E+03	 2.874600098E+03
 1.065629060E+03	 2.916399902E+03
 1.066193137E+03	 2.921000000E+03
 1.066757156E+03	 2.907000000E+03
 1.067321118E+03	 2.905600098E+03
 1.067885022E+03	 2.910800049E+03
 1.068448869E+03	 2.896000000E+03
 1.069012658E+03	 2.869800049E+03
 1.069576390E+03	 2.887800049E+03
 1.070140063E+03	 2.903600098E+03
 1.070703680E+03	 2.879199951E+03
 1.071267239E+03	 2.894000000E+03
 1.071830740E+03	 2.876600098E+03
 1.072394184E+03	 2.908600098E+03
 1.072957570E+03	 2.884199951E+03
 1.073520899E+03	 2.888399902E+03
 1.074084170E+03	 2.883000000E+03
 1.074647383E+03	 2.884800049E+03
 1.075210540E+03	 2.872399902E+03
 1.075773638E+03	 2.851800049E+03
 1.076336679E+03	 2.861399902E+03
 1.076899663E+03	 2.845600098E+03
 1.077462589E+03	 2.866600098E+03
 1.078025457E+03	 2.844399902E+03
 1.078588268E+03	 2.871800049E+03
 1.079151022E+03	 2.871000000E+03
 1.079713718E+03	 2.833399902E+03
 1.080276356E+03	 2.868399902E+03
 1.080838937E+03	 2.831800049E+03
 1.081401461E+03	 2.874000000E+03
 1.081963927E+03	 2.845600098E+03
 1.082526336E+03	 2.824800049E+03
 1.083088687E+03	 2.850000000E+03
 1.083650981E+03	 2.852199951E+03
 1.084213217E+03	 2.853199951E+03
 1.084775396E+03	 2.827800049E+03
 1.085337517E+03	 2.823199951E+03
 1.085899581E+03	 2.817399902E+03
 1.086461587E+03	 2.827399902E+03
 1.087023536E+03	 2.840600098E+03
 1.087585428E+03	 2.845399902E+03
 1.088147262E+03	 2.805399902E+03
 1.088709039E+03	 2.820000000E+03
 1.089270758E+03	 2.805199951E+03
 1.089832420E+03	 2.832199951E+03
 1.090394024E+03	 2.812399902E+03
 1.090955571E+03	 2.829199951E+03
 1.091517061E+03	 2.828399902E+03
 1.092078493E+03	 2.806199951E+03
 1.092639868E+03	 2.791800049E+03
 1.093201185E+03	 2.809800049E+03
 1.093762445E+03	 2.793000000E+03
 1.094323648E+03	 2.803399902E+03
 1.094884793E+03	 2.788600098E+03
 1.095445881E+03	 2.792600098E+03
 1.096006911E+03	 2.805600098E+03
 1.096567884E+03	 2.782800049E+03
 1.097128800E+03	 2.772399902E+03
 1.097689659E+03	 2.765600098E+03
 1.098250460E+03	 2.789000000E+03
 1.098811203E+03	 2.782600098E+03
 1.099371890E+03	 2.758199951E+03
 1.099932518E+03	 2.785199951E+03
 1.100493090E+03	 2.750000000E+03
 1.101053604E+03	 2.752000000E+03
 1.101614061E+03	 2.754800049E+03
 1.102174461E+03	 2.771199951E+03
 1.102734803E+03	 2.747800049E+03
 1.103295088E+03	 2.755600098E+03
 1.103855316E+03	 2.743399902E+03
 1.104415486E+03	 2.747600098E+03
 1.104975599E+03	 2.750199951E+03
 1.105535655E+03	 2.747000000E+03
 1.106095653E+03	 2.742399902E+03
 1.106655594E+03	 2.726399902E+03
 1.107215478E+03	 2.757000000E+03
 1.107775305E+03	 2.756000000E+03
 1.108335074E+03	 2.721000000E+03
 1.108894786E+03	 2.723399902E+03
 1.109454440E+03	 2.738399902E+03
 1.110014038E+03	 2.733600098E+03
 1.110573578E+03	 2.731600098E+03
 1.111133061E+03	 2.733199951E+03
 1.111692486E+03	 2.720000000E+03
 1.112251854E+03	 2.717199951E+03
 1.112811165E+03	 2.718000000E+03
 1.113370419E+03	 2.720800049E+03
 1.113929616E+03	 2.704600098E+03
 1.114488755E+03	 2.723199951E+03
 1.115047837E+03	 2.705600098E+03
 1.115606862E+03	 2.721199951E+03
 1.116165830E+03	 2.704600098E+03
 1.116724740E+03	 2.723399902E+03
 1.117283593E+03	 2.698000000E+03
 1.117842389E+03	 2.689000000E+03
 1.118401128E+03	 2.689000000E+03
 1.118959809E+03	 2.698800049E+03
 1.119518433E+03	 2.703399902E+03
 1.120077000E+03	 2.694600098E+03
 1.120635510E+03	 2.692600098E+03
 1.121193963E+03	 2.700600098E+03
 1.121752358E+03	 2.691199951E+03
 1.122310697E+03	 2.687800049E+03
 1.122868978E+03	 2.698399902E+03
 1.123427202E+03	 2.678000000E+03
 1.123985368E+03	 2.689399902E+03
 1.124543478E+03	 2.688000000E+03
 1.125101530E+03	 2.661800049E+03
 1.125659526E+03	 2.682800049E+03
 1.126217464E+03	 2.659199951E+03
 1.126775345E+03	 2.686199951E+03
 1.127333168E+03	 2.675000000E+03
 1.127890935E+03	 2.674199951E+03
 1.128448644E+03	 2.685600098E+03
 1.129006297E+03	 2.674000000E+03
 1.129563892E+03	 2.695199951E+03
 1.130121430E+03	 2.679000000E+03
 1.130678911E+03	 2.672600098E+03
 1.131236335E+03	 2.680000000E+03
 1.131793701E+03	 2.676199951E+03
 1.132351011E+03	 2.671800049E+03
 1.132908263E+03	 2.657199951E+03
 1.133465458E+03	 2.663600098E+03
 1.134022597E+03	 2.680399902E+03
 1.134579678E+03	 2.688000000E+03
 1.135136702E+03	 2.668000000E+03
 1.135693669E+03	 2.683399902E+03
 1.136250578E+03	 2.650800049E+03
 1.136807431E+03	 2.678399902E+03
 1.137364227E+03	 2.665000000E+03
 1.137920965E+03	 2.652399902E+03
 1.138477647E+03	 2.654199951E+03
 1.139034271E+03	 2.631399902E+03
 1.139590839E+03	 2.668399902E+03
 1.140147349E+03	 2.656199951E+03
 1.140703802E+03	 2.644600098E+03
 1.141260198E+03	 2.693800049E+03
 1.141816537E+03	 2.669000000E+03
 1.142372820E+03	 2.679600098E+03
 1.142929045E+03	 2.691199951E+03
 1.143485213E+03	 2.702800049E+03
 1.144041323E+03	 2.677199951E+03
 1.144597377E+03	 2.680399902E+03
 1.145153374E+03	 2.627800049E+03
 1.145709314E+03	 2.669399902E+03
 1.146265197E+03	 2.675600098E+03
 1.146821023E+03	 2.695800049E+03
 1.147376792E+03	 2.735199951E+03
 1.147932503E+03	 2.739000000E+03
 1.148488158E+03	 2.698000000E+03
 1.149043756E+03	 2.705399902E+03
 1.149599297E+03	 2.749600098E+03
 1.150154781E+03	 3.037000000E+03
 1.150710207E+03	 3.465000000E+03
 1.151265577E+03	 3.091199951E+03
 1.151820890E+03	 2.749000000E+03
 1.152376146E+03	 2.696600098E+03
 1.152931345E+03	 2.656600098E+03
 1.153486487E+03	 2.660600098E+03
 1.154041572E+03	 2.658800049E+03
 1.154596600E+03	 2.658800049E+03
 1.155151571E+03	 2.628600098E+03
 1.155706485E+03	 2.653800049E+03
 1.156261342E+03	 2.646600098E+03
 1.156816142E+03	 2.647000000E+03
 1.157370885E+03	 2.649800049E+03
 1.157925572E+03	 2.625199951E+03
 1.158480201E+03	 2.632600098E+03
 1.159034774E+03	 2.635199951E+03
 1.159589289E+03	 2.639399902E+03
 1.160143748E+03	 2.636600098E+03
 1.160698149E+03	 2.652800049E+03
 1.161252494E+03	 2.639600098E+03
 1.161806782E+03	 2.653000000E+03
 1.162361013E+03	 2.653000000E+03
 1.162915187E+03	 2.639000000E+03
 1.163469304E+03	 2.617600098E+03
 1.164023364E+03	 2.627800049E+03
 1.164577368E+03	 2.632399902E+03
 1.165131314E+03	 2.643199951E+03
 1.165685204E+03	 2.608800049E+03
 1.166239036E+03	 2.600399902E+03
 1.166792812E+03	 2.621800049E+03
 1.167346531E+03	 2.644000000E+03
 1.167900193E+03	 2.627600098E+03
 1.168453798E+03	 2.597600098E+03
 1.169007347E+03	 2.608399902E+03
 1.169560838E+03	 2.611199951E+03
 1.170114273E+03	 2.628199951E+03
 1.170667650E+03	 2.618000000E+03
 1.171220971E+03	 2.603199951E+03
 1.171774235E+03	 2.598800049E+03
 1.172327443E+03	 2.604199951E+03
 1.172880593E+03	 2.598800049E+03
 1.173433687E+03	 2.616800049E+03
 1.173986723E+03	 2.623000000E+03
 1.174539703E+03	 2.577199951E+03
 1.175092626E+03	 2.608000000E+03
 1.175645493E+03	 2.593199951E+03
 1.176198302E+03	 2.605199951E+03
 1.176751055E+03	 2.597199951E+03
 1.177303751E+03	 2.610600098E+03
 1.177856390E+03	 2.565199951E+03
 1.178408972E+03	 2.575800049E+03
 1.178961498E+03	 2.591399902E+03
 1.179513966E+03	 2.575399902E+03
 1.180066378E+03	 2.575399902E+03
 1.180618733E+03	 2.592000000E+03
 1.181171032E+03	 2.581000000E+03
 1.181723273E+03	 2.554600098E+03
 1.182275458E+03	 2.582800049E+03
 1.182827586E+03	 2.570600098E+03
 1.183379657E+03	 2.583000000E+03
 1.183931672E+03	 2.587199951E+03
 1.184483630E+03	 2.573000000E+03
 1.185035531E+03	 2.560800049E+03
 1.185587375E+03	 2.558399902E+03
 1.186139162E+03	 2.590800049E+03
 1.186690893E+03	 2.568000000E+03
 1.187242567E+03	 2.553800049E+03
 1.187794184E+03	 2.565199951E+03
 1.188345745E+03	 2.551000000E+03
 1.188897249E+03	 2.550199951E+03
 1.189448696E+03	 2.566800049E+03
 1.190000086E+03	 2.567600098E+03
 1.190551420E+03	 2.585399902E+03
 1.191102697E+03	 2.550199951E+03
 1.191653918E+03	 2.554199951E+03
 1.192205081E+03	 2.577800049E+03
 1.192756188E+03	 2.579800049E+03
 1.193307238E+03	 2.558399902E+03
 1.193858232E+03	 2.558000000E+03
 1.194409169E+03	 2.560800049E+03
 1.194960049E+03	 2.524199951E+03
 1.195510872E+03	 2.548000000E+03
 1.196061639E+03	 2.538399902E+03
 1.196612349E+03	 2.546600098E+03
 1.197163003E+03	 2.544000000E+03
 1.197713599E+03	 2.529399902E+03
 1.198264139E+03	 2.543399902E+03
 1.198814623E+03	 2.536399902E+03
 1.199365050E+03	 2.534000000E+03
 1.199915420E+03	 2.549800049E+03
 1.200465734E+03	 2.541399902E+03
 1.201015990E+03	 2.530199951E+03
 1.201566191E+03	 2.518600098E+03
 1.202116334E+03	 2.549800049E+03
 1.202666421E+03	 2.524600098E+03
 1.203216452E+03	 2.519399902E+03
 1.203766425E+03	 2.525399902E+03
 1.204316343E+03	 2.517199951E+03
 1.204866203E+03	 2.500000000E+03
 1.205416007E+03	 2.516399902E+03
 1.205965754E+03	 2.511199951E+03
 1.206515445E+03	 2.528000000E+03
 1.207065079E+03	 2.524800049E+03
 1.207614657E+03	 2.497800049E+03
 1.208164177E+03	 2.516199951E+03
 1.208713642E+03	 2.495800049E+03
 1.209263050E+03	 2.501000000E+03
 1.209812401E+03	 2.507399902E+03
 1.210361695E+03	 2.490800049E+03
 1.210910933E+03	 2.488000000E+03
 1.211460115E+03	 2.505600098E+03
 1.212009240E+03	 2.518199951E+03
 1.212558308E+03	 2.495000000E+03
 1.213107320E+03	 2.505800049E+03
 1.213656275E+03	 2.514000000E+03
 1.214205174E+03	 2.486600098E+03
 1.214754016E+03	 2.490600098E+03
 1.215302801E+03	 2.483399902E+03
 1.215851530E+03	 2.471800049E+03
 1.216400203E+03	 2.480000000E+03
 1.216948819E+03	 2.475800049E+03
 1.217497378E+03	 2.476600098E+03
 1.218045881E+03	 2.462199951E+03
 1.218594327E+03	 2.484399902E+03
 1.219142717E+03	 2.465000000E+03
 1.219691051E+03	 2.476399902E+03
 1.220239327E+03	 2.456199951E+03
 1.220787548E+03	 2.478000000E+03
 1.221335712E+03	 2.454199951E+03
 1.221883819E+03	 2.478000000E+03
 1.222431870E+03	 2.478800049E+03
 1.222979864E+03	 2.485600098E+03
 1.223527802E+03	 2.464600098E+03
 1.224075683E+03	 2.486600098E+03
 1.224623508E+03	 2.441000000E+03
 1.225171277E+03	 2.492600098E+03
 1.225718989E+03	 2.484000000E+03
 1.226266644E+03	 2.471800049E+03
 1.226814243E+03	 2.463800049E+03
 1.227361786E+03	 2.462199951E+03
 1.227909272E+03	 2.440800049E+03
 1.228456702E+03	 2.466600098E+03
 1.229004075E+03	 2.460000000E+03
 1.229551392E+03	 2.457399902E+03
 1.230098652E+03	 2.453199951E+03
 1.230645856E+03	 2.471399902E+03
 1.231193003E+03	 2.438000000E+03
 1.231740094E+03	 2.448199951E+03
 1.232287129E+03	 2.450199951E+03
 1.232834107E+03	 2.445800049E+03
 1.233381029E+03	 2.463600098E+03
 1.233927894E+03	 2.433800049E+03
 1.234474703E+03	 2.440800049E+03
 1.235021455E+03	 2.463399902E+03
 1.235568151E+03	 2.467399902E+03
 1.236114791E+03	 2.451800049E+03
 1.236661374E+03	 2.451399902E+03
 1.237207901E+03	 2.435199951E+03
 1.237754372E+03	 2.466000000E+03
 1.238300786E+03	 2.426399902E+03
 1.238847144E+03	 2.438399902E+03
 1.239393445E+03	 2.440399902E+03
 1.239939690E+03	 2.449800049E+03
 1.240485879E+03	 2.453600098E+03
 1.241032011E+03	 2.439199951E+03
 1.241578087E+03	 2.403199951E+03
 1.242124106E+03	 2.449600098E+03
 1.242670070E+03	 2.438800049E+03
 1.243215976E+03	 2.420800049E+03
 1.243761827E+03	 2.425199951E+03
 1.244307621E+03	 2.434199951E+03
 1.244853359E+03	 2.441800049E+03
 1.245399040E+03	 2.419199951E+03
 1.245944665E+03	 2.429000000E+03
 1.246490234E+03	 2.424800049E+03
 1.247035746E+03	 2.426399902E+03
 1.247581203E+03	 2.411000000E+03
 1.248126602E+03	 2.426399902E+03
 1.248671946E+03	 2.426199951E+03
 1.249217233E+03	 2.408199951E+03
 1.249762464E+03	 2.412800049E+03
 1.250307638E+03	 2.429800049E+03
 1.250852757E+03	 2.416000000E+03
 1.251397819E+03	 2.442399902E+03
 1.251942824E+03	 2.416600098E+03
 1.252487774E+03	 2.414000000E+03
 1.253032667E+03	 2.422600098E+03
 1.253577503E+03	 2.410000000E+03
 1.254122284E+03	 2.415199951E+03
 1.254667008E+03	 2.434600098E+03
 1.255211676E+03	 2.411000000E+03
 1.255756288E+03	 2.410199951E+03
 1.256300843E+03	 2.402600098E+03
 1.256845342E+03	 2.401399902E+03
 1.257389785E+03	 2.402800049E+03
 1.257934172E+03	 2.399000000E+03
 1.258478502E+03	 2.406399902E+03
 1.259022776E+03	 2.413399902E+03
 1.259566994E+03	 2.408800049E+03
 1.260111156E+03	 2.427800049E+03
 1.260655261E+03	 2.387800049E+03
 1.261199311E+03	 2.416600098E+03
 1.261743304E+03	 2.368600098E+03
 1.262287240E+03	 2.407399902E+03
 1.262831121E+03	 2.401800049E+03
 1.263374945E+03	 2.414800049E+03
 1.263918713E+03	 2.431800049E+03
 1.264462425E+03	 2.454199951E+03
 1.265006081E+03	 2.531000000E+03
 1.265549680E+03	 2.501800049E+03
 1.266093223E+03	 2.432000000E+03
 1.266636711E+03	 2.410800049E+03
 1.267180141E+03	 2.397600098E+03
 1.267723516E+03	 2.394000000E+03
 1.268266835E+03	 2.387800049E+03
 1.268810097E+03	 2.396199951E+03
 1.269353303E+03	 2.402199951E+03
 1.269896453E+03	 2.380000000E+03
 1.270439547E+03	 2.383199951E+03
 1.270982584E+03	 2.380399902E+03
 1.271525566E+03	 2.377399902E+03
 1.272068491E+03	 2.409199951E+03
 1.272611360E+03	 2.378399902E+03
 1.273154173E+03	 2.367600098E+03
 1.273696930E+03	 2.373199951E+03
 1.274239631E+03	 2.357399902E+03
 1.274782275E+03	 2.361000000E+03
 1.275324864E+03	 2.360600098E+03
 1.275867396E+03	 2.354800049E+03
 1.276409872E+03	 2.367199951E+03
 1.276952292E+03	 2.381399902E+03
 1.277494656E+03	 2.353000000E+03
 1.278036964E+03	 2.381800049E+03
 1.278579215E+03	 2.349600098E+03
 1.279121411E+03	 2.343600098E+03
 1.279663550E+03	 2.355399902E+03
 1.280205634E+03	 2.350600098E+03
 1.280747661E+03	 2.359000000E+03
 1.281289632E+03	 2.360399902E+03
 1.281831547E+03	 2.390000000E+03
 1.282373406E+03	 2.419399902E+03
 1.282915209E+03	 2.407399902E+03
 1.283456955E+03	 2.469800049E+03
 1.283998646E+03	 2.590800049E+03
 1.284540281E+03	 2.987600098E+03
 1.285081859E+03	 3.999399902E+03
 1.285623381E+03	 4.273000000E+03
 1.286164848E+03	 3.109000000E+03
 1.286706258E+03	 2.546399902E+03
 1.287247612E+03	 2.435000000E+03
 1.287788911E+03	 2.395399902E+03
 1.288330153E+03	 2.367800049E+03
 1.288871339E+03	 2.379199951E+03
 1.289412469E+03	 2.332199951E+03
 1.289953543E+03	 2.334800049E+03
 1.290494561E+03	 2.348199951E+03
 1.291035523E+03	 2.341399902E+03
 1.291576428E+03	 2.357199951E+03
 1.292117278E+03	 2.329199951E+03
 1.292658072E+03	 2.332199951E+03
 1.293198810E+03	 2.341600098E+03
 1.293739492E+03	 2.325199951E+03
 1.294280118E+03	 2.320800049E+03
 1.294820687E+03	 2.332000000E+03
 1.295361201E+03	 2.321600098E+03
 1.295901659E+03	 2.346000000E+03
 1.296442061E+03	 2.309600098E+03
 1.296982406E+03	 2.330600098E+03
 1.297522696E+03	 2.311000000E+03
 1.298062930E+03	 2.310800049E+03
 1.298603108E+03	 2.332000000E+03
 1.299143229E+03	 2.327199951E+03
 1.299683295E+03	 2.321600098E+03
 1.300223305E+03	 2.281000000E+03
 1.300763259E+03	 2.320399902E+03
 1.301303157E+03	 2.293399902E+03
 1.301842999E+03	 2.299000000E+03
 1.302382785E+03	 2.286199951E+03
 1.302922515E+03	 2.320800049E+03
 1.303462189E+03	 2.298600098E+03
 1.304001807E+03	 2.321199951E+03
 1.304541369E+03	 2.272199951E+03
 1.305080875E+03	 2.298199951E+03
 1.305620326E+03	 2.283199951E+03
 1.306159720E+03	 2.304600098E+03
 1.306699058E+03	 2.306199951E+03
 1.307238341E+03	 2.294399902E+03
 1.307777567E+03	 2.277800049E+03
 1.308316738E+03	 2.286800049E+03
 1.308855853E+03	 2.287800049E+03
 1.309394912E+03	 2.280199951E+03
 1.309933915E+03	 2.289600098E+03
 1.310472862E+03	 2.280800049E+03
 1.311011753E+03	 2.288000000E+03
 1.311550588E+03	 2.282000000E+03
 1.312089367E+03	 2.283800049E+03
 1.312628090E+03	 2.283199951E+03
 1.313166758E+03	 2.273600098E+03
 1.313705370E+03	 2.277000000E+03
 1.314243925E+03	 2.274399902E+03
 1.314782425E+03	 2.258199951E+03
 1.315320869E+03	 2.282399902E+03
 1.315859257E+03	 2.283199951E+03
 1.316397589E+03	 2.292800049E+03
 1.316935866E+03	 2.279800049E+03
 1.317474086E+03	 2.270199951E+03
 1.318012251E+03	 2.255399902E+03
 1.318550360E+03	 2.258000000E+03
 1.319088413E+03	 2.261600098E+03
 1.319626410E+03	 2.253000000E+03
 1.320164351E+03	 2.277600098E+03
 1.320702236E+03	 2.252000000E+03
 1.321240066E+03	 2.251000000E+03
 1.321777839E+03	 2.260800049E+03
 1.322315557E+03	 2.268600098E+03
 1.322853219E+03	 2.269199951E+03
 1.323390826E+03	 2.239600098E+03
 1.323928376E+03	 2.282399902E+03
 1.324465871E+03	 2.263199951E+03
 1.325003309E+03	 2.263199951E+03
 1.325540692E+03	 2.262199951E+03
 1.326078020E+03	 2.257199951E+03
 1.326615291E+03	 2.244800049E+03
 1.327152506E+03	 2.247000000E+03
 1.327689666E+03	 2.241199951E+03
 1.328226770E+03	 2.231800049E+03
 1.328763818E+03	 2.248199951E+03
 1.329300811E+03	 2.245600098E+03
 1.329837747E+03	 2.232600098E+03
 1.330374628E+03	 2.244199951E+03
 1.330911453E+03	 2.232199951E+03
 1.331448222E+03	 2.242800049E+03
 1.331984936E+03	 2.244199951E+03
 1.332521594E+03	 2.244800049E+03
 1.333058196E+03	 2.235800049E+03
 1.333594742E+03	 2.259000000E+03
 1.334131232E+03	 2.223800049E+03
 1.334667667E+03	 2.247600098E+03
 1.335204046E+03	 2.222800049E+03
 1.335740369E+03	 2.239399902E+03
 1.336276637E+03	 2.224800049E+03
 1.336812848E+03	 2.231800049E+03
 1.337349004E+03	 2.217399902E+03
 1.337885105E+03	 2.228199951E+03
 1.338421149E+03	 2.236800049E+03
 1.338957138E+03	 2.239800049E+03
 1.339493071E+03	 2.235199951E+03
 1.340028949E+03	 2.202600098E+03
 1.340564770E+03	 2.236000000E+03
 1.341100536E+03	 2.231600098E+03
 1.341636246E+03	 2.206199951E+03
 1.342171901E+03	 2.218600098E+03
 1.342707500E+03	 2.228000000E+03
 1.343243043E+03	 2.237800049E+03
 1.343778530E+03	 2.214600098E+03
 1.344313962E+03	 2.201000000E+03
 1.344849338E+03	 2.213000000E+03
 1.345384659E+03	 2.199199951E+03
 1.345919923E+03	 2.204000000E+03
 1.346455133E+03	 2.212399902E+03
 1.346990286E+03	 2.216399902E+03
 1.347525384E+03	 2.201199951E+03
 1.348060426E+03	 2.207000000E+03
 1.348595412E+03	 2.174800049E+03
 1.349130343E+03	 2.200800049E+03
 1.349665218E+03	 2.195800049E+03
 1.350200037E+03	 2.224600098E+03
 1.350734801E+03	 2.197600098E+03
 1.351269509E+03	 2.199399902E+03
 1.351804162E+03	 2.201000000E+03
 1.352338758E+03	 2.215600098E+03
 1.352873300E+03	 2.174399902E+03
 1.353407785E+03	 2.196600098E+03
 1.353942215E+03	 2.210800049E+03
 1.354476589E+03	 2.188600098E+03
 1.355010908E+03	 2.194600098E+03
 1.355545171E+03	 2.201199951E+03
 1.356079379E+03	 2.214600098E+03
 1.356613530E+03	 2.167800049E+03
 1.357147627E+03	 2.185000000E+03
 1.357681667E+03	 2.175399902E+03
 1.358215652E+03	 2.163399902E+03
 1.358749582E+03	 2.176600098E+03
 1.359283456E+03	 2.185399902E+03
 1.359817274E+03	 2.182000000E+03
 1.360351037E+03	 2.176399902E+03
 1.360884744E+03	 2.168000000E+03
 1.361418395E+03	 2.190199951E+03
 1.361951991E+03	 2.190000000E+03
 1.362485531E+03	 2.190199951E+03
 1.363019016E+03	 2.194000000E+03
 1.363552445E+03	 2.153000000E+03
 1.364085819E+03	 2.175000000E+03
 1.364619137E+03	 2.182399902E+03
 1.365152400E+03	 2.163199951E+03
 1.365685607E+03	 2.178800049E+03
 1.366218758E+03	 2.192600098E+03
 1.366751854E+03	 2.170199951E+03
 1.367284894E+03	 2.187000000E+03
 1.367817879E+03	 2.173800049E+03
 1.368350808E+03	 2.168600098E+03
 1.368883682E+03	 2.165199951E+03
 1.369416500E+03	 2.169600098E+03
 1.369949263E+03	 2.176000000E+03
 1.370481970E+03	 2.217399902E+03
 1.371014622E+03	 2.187199951E+03
 1.371547218E+03	 2.180600098E+03
 1.372079758E+03	 2.142199951E+03
 1.372612244E+03	 2.147000000E+03
 1.373144673E+03	 2.173000000E+03
 1.373677047E+03	 2.174399902E+03
 1.374209366E+03	 2.150199951E+03
 1.374741629E+03	 2.166800049E+03
 1.375273836E+03	 2.162800049E+03
 1.375805989E+03	 2.135600098E+03
 1.376338085E+03	 2.175800049E+03
 1.376870126E+03	 2.131199951E+03
 1.377402112E+03	 2.158399902E+03
 1.377934042E+03	 2.150199951E+03
 1.378465917E+03	 2.175199951E+03
 1.378997736E+03	 2.132800049E+03
 1.379529500E+03	 2.170800049E+03
 1.380061208E+03	 2.129399902E+03
 1.380592861E+03	 2.163399902E+03
 1.381124459E+03	 2.126000000E+03
 1.381656000E+03	 2.158000000E+03
 1.382187487E+03	 2.141800049E+03
 1.382718918E+03	 2.159399902E+03
 1.383250294E+03	 2.163800049E+03
 1.383781614E+03	 2.167600098E+03
 1.384312879E+03	 2.161000000E+03
 1.384844088E+03	 2.152600098E+03
 1.385375242E+03	 2.175000000E+03
 1.385906340E+03	 2.211199951E+03
 1.386437383E+03	 2.251000000E+03
 1.386968371E+03	 2.299000000E+03
 1.387499303E+03	 2.507399902E+03
 1.388030180E+03	 3.365600098E+03
 1.388561001E+03	 5.731200195E+03
 1.389091767E+03	 4.893600098E+03
 1.389622478E+03	 2.805800049E+03
 1.390153133E+03	 2.312600098E+03
 1.390683733E+03	 2.219399902E+03
 1.391214277E+03	 2.187399902E+03
 1.391744766E+03	 2.155800049E+03
 1.392275200E+03	 2.159800049E+03
 1.392805578E+03	 2.143800049E+03
 1.393335901E+03	 2.139800049E+03
 1.393866168E+03	 2.128199951E+03
 1.394396381E+03	 2.129199951E+03
 1.394926537E+03	 2.126600098E+03
 1.395456639E+03	 2.121800049E+03
 1.395986685E+03	 2.111800049E+03
 1.396516675E+03	 2.139000000E+03
 1.397046611E+03	 2.126600098E+03
 1.397576491E+03	 2.123800049E+03
 1.398106315E+03	 2.124000000E+03
 1.398636084E+03	 2.143800049E+03
 1.399165798E+03	 2.129000000E+03
 1.399695457E+03	 2.104399902E+03
 1.400225060E+03	 2.123000000E+03
 1.400754608E+03	 2.119399902E+03
 1.401284101E+03	 2.116399902E+03
 1.401813538E+03	 2.113399902E+03
 1.402342920E+03	 2.114399902E+03
 1.402872247E+03	 2.114399902E+03
 1.403401518E+03	 2.116000000E+03
 1.403930734E+03	 2.101600098E+03
 1.404459895E+03	 2.115399902E+03
 1.404989000E+03	 2.100800049E+03
 1.405518050E+03	 2.107399902E+03
 1.406047045E+03	 2.122399902E+03
 1.406575984E+03	 2.115600098E+03
 1.407104869E+03	 2.125199951E+03
 1.407633697E+03	 2.105600098E+03
 1.408162471E+03	 2.127600098E+03
 1.408691189E+03	 2.128399902E+03
 1.409219852E+03	 2.209600098E+03
 1.409748460E+03	 2.318000000E+03
 1.410277013E+03	 2.370600098E+03
 1.410805510E+03	 2.202399902E+03
 1.411333952E+03	 2.152800049E+03
 1.411862339E+03	 2.111199951E+03
 1.412390670E+03	 2.094199951E+03
 1.412918946E+03	 2.111399902E+03
 1.413447167E+03	 2.100199951E+03
 1.413975333E+03	 2.106600098E+03
 1.414503444E+03	 2.092000000E+03
 1.415031499E+03	 2.089399902E+03
 1.415559499E+03	 2.099800049E+03
 1.416087444E+03	 2.093000000E+03
 1.416615333E+03	 2.092199951E+03
 1.417143167E+03	 2.089199951E+03
 1.417670947E+03	 2.059000000E+03
 1.418198670E+03	 2.090600098E+03
 1.418726339E+03	 2.078199951E+03
 1.419253952E+03	 2.091800049E+03
 1.419781511E+03	 2.072800049E+03
 1.420309014E+03	 2.071600098E+03
 1.420836461E+03	 2.075000000E+03
 1.421363854E+03	 2.063800049E+03
 1.421891191E+03	 2.055000000E+03
 1.422418474E+03	 2.068399902E+03
 1.422945701E+03	 2.084800049E+03
 1.423472872E+03	 2.073399902E+03
 1.423999989E+03	 2.075600098E+03
 1.424527050E+03	 2.068199951E+03
 1.425054057E+03	 2.079800049E+03
 1.425581008E+03	 2.076800049E+03
 1.426107904E+03	 2.103600098E+03
 1.426634745E+03	 2.077800049E+03
 1.427161530E+03	 2.080399902E+03
 1.427688261E+03	 2.051000000E+03
 1.428214936E+03	 2.080600098E+03
 1.428741556E+03	 2.054399902E+03
 1.429268121E+03	 2.059800049E+03
 1.429794631E+03	 2.072000000E+03
 1.430321085E+03	 2.066399902E+03
 1.430847485E+03	 2.046000000E+03
 1.431373829E+03	 2.056399902E+03
 1.431900118E+03	 2.071399902E+03
 1.432426353E+03	 2.067800049E+03
 1.432952532E+03	 2.041000000E+03
 1.433478655E+03	 2.054600098E+03
 1.434004724E+03	 2.045400024E+03
 1.434530738E+03	 2.053800049E+03
 1.435056696E+03	 2.042199951E+03
 1.435582600E+03	 2.046000000E+03
 1.436108448E+03	 2.047599976E+03
 1.436634241E+03	 2.053000000E+03
 1.437159979E+03	 2.054800049E+03
 1.437685662E+03	 2.055399902E+03
 1.438211290E+03	 2.059199951E+03
 1.438736863E+03	 2.038599976E+03
 1.439262381E+03	 2.046800049E+03
 1.439787843E+03	 2.033199951E+03
 1.440313251E+03	 2.037400024E+03
 1.440838603E+03	 2.047800049E+03
 1.441363900E+03	 2.043599976E+03
 1.441889143E+03	 2.036599976E+03
 1.442414330E+03	 2.022599976E+03
 1.442939462E+03	 2.027599976E+03
 1.443464539E+03	 2.046800049E+03
 1.443989561E+03	 2.038800049E+03
 1.444514528E+03	 2.042800049E+03
 1.445039440E+03	 2.039400024E+03
 1.445564297E+03	 2.021199951E+03
 1.446089099E+03	 2.037199951E+03
 1.446613846E+03	 2.012400024E+03
 1.447138537E+03	 2.039800049E+03
 1.447663174E+03	 2.032000000E+03
 1.448187756E+03	 2.027000000E+03
 1.448712282E+03	 2.005000000E+03
 1.449236754E+03	 2.020199951E+03
 1.449761171E+03	 2.018400024E+03
 1.450285532E+03	 2.015599976E+03
 1.450809839E+03	 2.016599976E+03
 1.451334090E+03	 2.029199951E+03
 1.451858287E+03	 2.030400024E+03
 1.452382428E+03	 2.019599976E+03
 1.452906515E+03	 2.015199951E+03
 1.453430546E+03	 2.017199951E+03
 1.453954523E+03	 2.019400024E+03
 1.454478444E+03	 2.022000000E+03
 1.455002311E+03	 2.020400024E+03
 1.455526123E+03	 2.026599976E+03
 1.456049879E+03	 2.022800049E+03
 1.456573581E+03	 2.002599976E+03
 1.457097227E+03	 2.015000000E+03
 1.457620819E+03	 2.006599976E+03
 1.458144356E+03	 2.004599976E+03
 1.458667837E+03	 1.995800049E+03
 1.459191264E+03	 1.999400024E+03
 1.459714636E+03	 2.007400024E+03
 1.460237952E+03	 1.988199951E+03
 1.460761214E+03	 2.028400024E+03
 1.461284421E+03	 2.027400024E+03
 1.461807573E+03	 1.994800049E+03
 1.462330670E+03	 1.994800049E+03
 1.462853712E+03	 2.000599976E+03
 1.463376699E+03	 2.001599976E+03
 1.463899632E+03	 2.014400024E+03
 1.464422509E+03	 2.008000000E+03
 1.464945331E+03	 1.996199951E+03
 1.465468099E+03	 2.005000000E+03
 1.465990811E+03	 1.991400024E+03
 1.466513469E+03	 2.008800049E+03
 1.467036071E+03	 1.989199951E+03
 1.467558619E+03	 1.979800049E+03
 1.468081112E+03	 1.991800049E+03
 1.468603550E+03	 1.995400024E+03
 1.469125933E+03	 1.986199951E+03
 1.469648261E+03	 1.996400024E+03
 1.470170534E+03	 1.983800049E+03
 1.470692752E+03	 1.982199951E+03
 1.471214916E+03	 1.954199951E+03
 1.471737024E+03	 1.989199951E+03
 1.472259078E+03	 1.959800049E+03
 1.472781077E+03	 1.993000000E+03
 1.473303021E+03	 1.977400024E+03
 1.473824910E+03	 1.952400024E+03
 1.474346744E+03	 1.975800049E+03
 1.474868523E+03	 1.973000000E+03
 1.475390248E+03	 1.979599976E+03
 1.475911917E+03	 1.976800049E+03
 1.476433532E+03	 1.958800049E+03
 1.476955092E+03	 1.961800049E+03
 1.477476597E+03	 1.971000000E+03
 1.477998047E+03	 1.986800049E+03
 1.478519442E+03	 1.973800049E+03
 1.479040783E+03	 1.973800049E+03
 1.479562068E+03	 1.972000000E+03
 1.480083299E+03	 1.962400024E+03
 1.480604475E+03	 1.975400024E+03
 1.481125596E+03	 1.977599976E+03
 1.481646663E+03	 1.966800049E+03
 1.482167674E+03	 1.961800049E+03
 1.482688631E+03	 1.952599976E+03
 1.483209533E+03	 1.968400024E+03
 1.483730380E+03	 1.960800049E+03
 1.484251172E+03	 1.953199951E+03
 1.484771909E+03	 1.941400024E+03
 1.485292592E+03	 1.946800049E+03
 1.485813220E+03	 1.932599976E+03
 1.486333793E+03	 1.964199951E+03
 1.486854311E+03	 1.947599976E+03
 1.487374775E+03	 1.930599976E+03
 1.487895183E+03	 1.954000000E+03
 1.488415537E+03	 1.951599976E+03
 1.488935836E+03	 1.942000000E+03
 1.489456081E+03	 1.944800049E+03
 1.489976270E+03	 1.954000000E+03
 1.490496405E+03	 1.947400024E+03
 1.491016485E+03	 1.947400024E+03
 1.491536511E+03	 1.930000000E+03
 1.492056481E+03	 1.939400024E+03
 1.492576397E+03	 1.931800049E+03
 1.493096258E+03	 1.943000000E+03
 1.493616064E+03	 1.934000000E+03
 1.494135816E+03	 1.945199951E+03
 1.494655513E+03	 1.935000000E+03
 1.495175155E+03	 1.935400024E+03
 1.495694742E+03	 1.931199951E+03
 1.496214274E+03	 1.939199951E+03
 1.496733752E+03	 1.922599976E+03
 1.497253175E+03	 1.930199951E+03
 1.497772544E+03	 1.936800049E+03
 1.498291858E+03	 1.926199951E+03
 1.498811116E+03	 1.942000000E+03
 1.499330321E+03	 1.937599976E+03
 1.499849470E+03	 1.937599976E+03
 1.500368565E+03	 1.914800049E+03
 1.500887605E+03	 1.941400024E+03
 1.501406591E+03	 1.932800049E+03
 1.501925521E+03	 1.927199951E+03
 1.502444397E+03	 1.923599976E+03
 1.502963219E+03	 1.933800049E+03
 1.503481985E+03	 1.940599976E+03
 1.504000697E+03	 1.945199951E+03
 1.504519355E+03	 1.925000000E+03
 1.505037957E+03	 1.925400024E+03
 1.505556505E+03	 1.909599976E+03
 1.506074999E+03	 1.899599976E+03
 1.506593437E+03	 1.922599976E+03
 1.507111821E+03	 1.919000000E+03
 1.507630150E+03	 1.913000000E+03
 1.508148425E+03	 1.922000000E+03
 1.508666645E+03	 1.925000000E+03
 1.509184810E+03	 1.903199951E+03
 1.509702921E+03	 1.911800049E+03
 1.510220977E+03	 1.921400024E+03
 1.510738979E+03	 1.915199951E+03
 1.511256925E+03	 1.912400024E+03
 1.511774817E+03	 1.906599976E+03
 1.512292655E+03	 1.895599976E+03
 1.512810438E+03	 1.927199951E+03
 1.513328166E+03	 1.900800049E+03
 1.513845840E+03	 1.903400024E+03
 1.514363459E+03	 1.926800049E+03
 1.514881023E+03	 1.900199951E+03
 1.515398533E+03	 1.913800049E+03
 1.515915988E+03	 1.899800049E+03
 1.516433389E+03	 1.919800049E+03
 1.516950734E+03	 1.894400024E+03
 1.517468026E+03	 1.909599976E+03
 1.517985263E+03	 1.899199951E+03
 1.518502445E+03	 1.891199951E+03
 1.519019572E+03	 1.894000000E+03
 1.519536645E+03	 1.879800049E+03
 1.520053664E+03	 1.908000000E+03
 1.520570628E+03	 1.887199951E+03
 1.521087537E+03	 1.898000000E+03
 1.521604392E+03	 1.904400024E+03
 1.522121192E+03	 1.902199951E+03
 1.522637937E+03	 1.910000000E+03
 1.523154628E+03	 1.906800049E+03
 1.523671265E+03	 1.900599976E+03
 1.524187847E+03	 1.883400024E+03
 1.524704374E+03	 1.877599976E+03
 1.525220847E+03	 1.890599976E+03
 1.525737265E+03	 1.895400024E+03
 1.526253629E+03	 1.887400024E+03
 1.526769938E+03	 1.903400024E+03
 1.527286192E+03	 1.905199951E+03
 1.527802392E+03	 1.899000000E+03
 1.528318538E+03	 1.887800049E+03
 1.528834629E+03	 1.892400024E+03
 1.529350666E+03	 1.900400024E+03
 1.529866648E+03	 1.897800049E+03
 1.530382575E+03	 1.900199951E+03
 1.530898448E+03	 1.899800049E+03
 1.531414266E+03	 1.889800049E+03
 1.531930030E+03	 1.889800049E+03
 1.532445740E+03	 1.892000000E+03
 1.532961395E+03	 1.873199951E+03
 1.533476995E+03	 1.884199951E+03
 1.533992541E+03	 1.889199951E+03
 1.534508033E+03	 1.894199951E+03
 1.535023470E+03	 1.882199951E+03
 1.535538852E+03	 1.891199951E+03
 1.536054180E+03	 1.882000000E+03
 1.536569454E+03	 1.883199951E+03
 1.537084673E+03	 1.882000000E+03
 1.537599837E+03	 1.891400024E+03
 1.538114947E+03	 1.878599976E+03
 1.538630003E+03	 1.874199951E+03
 1.539145004E+03	 1.890800049E+03
 1.539659951E+03	 1.870000000E+03
 1.540174843E+03	 1.891400024E+03
 1.540689681E+03	 1.874599976E+03
 1.541204465E+03	 1.885400024E+03
 1.541719194E+03	 1.871400024E+03
 1.542233868E+03	 1.875400024E+03
 1.542748488E+03	 1.886000000E+03
 1.543263054E+03	 1.874400024E+03
 1.543777565E+03	 1.888599976E+03
 1.544292022E+03	 1.889800049E+03
 1.544806424E+03	 1.889199951E+03
 1.545320772E+03	 1.870800049E+03
 1.545835066E+03	 1.888199951E+03
 1.546349305E+03	 1.886000000E+03
 1.546863489E+03	 1.887599976E+03
 1.547377620E+03	 1.869800049E+03
 1.547891696E+03	 1.861599976E+03
 1.548405717E+03	 1.867800049E+03
 1.548919684E+03	 1.866800049E+03
 1.549433597E+03	 1.887000000E+03
 1.549947455E+03	 1.872800049E+03
 1.550461259E+03	 1.875599976E+03
 1.550975009E+03	 1.869199951E+03
 1.551488704E+03	 1.875400024E+03
 1.552002345E+03	 1.869000000E+03
 1.552515931E+03	 1.885000000E+03
 1.553029463E+03	 1.856800049E+03
 1.553542941E+03	 1.857800049E+03
 1.554056364E+03	 1.875800049E+03
 1.554569733E+03	 1.859800049E+03
 1.555083048E+03	 1.857800049E+03
 1.555596308E+03	 1.851199951E+03
 1.556109514E+03	 1.867800049E+03
 1.556622665E+03	 1.876199951E+03
 1.557135762E+03	 1.877400024E+03
 1.557648805E+03	 1.860199951E+03
 1.558161794E+03	 1.866599976E+03
 1.558674728E+03	 1.847800049E+03
 1.559187608E+03	 1.877800049E+03
 1.559700433E+03	 1.868599976E+03
 1.560213205E+03	 1.849599976E+03
 1.560725921E+03	 1.876000000E+03
 1.561238584E+03	 1.864800049E+03
 1.561751192E+03	 1.868599976E+03
 1.562263746E+03	 1.864000000E+03
 1.562776246E+03	 1.852000000E+03
 1.563288691E+03	 1.878400024E+03
 1.563801082E+03	 1.855599976E+03
 1.564313419E+03	 1.851800049E+03
 1.564825701E+03	 1.838199951E+03
 1.565337929E+03	 1.851599976E+03
 1.565850103E+03	 1.855199951E+03
 1.566362223E+03	 1.853400024E+03
 1.566874288E+03	 1.848800049E+03
 1.567386299E+03	 1.865599976E+03
 1.567898256E+03	 1.849400024E+03
 1.568410158E+03	 1.846800049E+03
 1.568922007E+03	 1.869599976E+03
 1.569433800E+03	 1.837599976E+03
 1.569945540E+03	 1.844599976E+03
 1.570457226E+03	 1.835800049E+03
 1.570968857E+03	 1.865000000E+03
 1.571480434E+03	 1.835800049E+03
 1.571991956E+03	 1.863599976E+03
 1.572503425E+03	 1.853599976E+03
 1.573014839E+03	 1.856400024E+03
 1.573526199E+03	 1.865599976E+03
 1.574037505E+03	 1.848000000E+03
 1.574548756E+03	 1.845199951E+03
 1.575059953E+03	 1.844199951E+03
 1.575571096E+03	 1.838400024E+03
 1.576082185E+03	 1.840400024E+03
 1.576593220E+03	 1.846800049E+03
 1.577104200E+03	 1.822199951E+03
 1.577615126E+03	 1.842000000E+03
 1.578125998E+03	 1.838000000E+03
 1.578636816E+03	 1.859400024E+03
 1.579147580E+03	 1.828199951E+03
 1.579658289E+03	 1.841000000E+03
 1.580168944E+03	 1.830400024E+03
 1.580679545E+03	 1.834800049E+03
 1.581190092E+03	 1.831599976E+03
 1.581700585E+03	 1.833199951E+03
 1.582211023E+03	 1.828000000E+03
 1.582721407E+03	 1.827599976E+03
 1.583231737E+03	 1.832599976E+03
 1.583742013E+03	 1.834400024E+03
 1.584252235E+03	 1.832000000E+03
 1.584762403E+03	 1.845599976E+03
 1.585272516E+03	 1.843599976E+03
 1.585782575E+03	 1.837599976E+03
 1.586292581E+03	 1.823800049E+03
 1.586802532E+03	 1.836199951E+03
 1.587312428E+03	 1.837000000E+03
 1.587822271E+03	 1.837199951E+03
 1.588332060E+03	 1.828400024E+03
 1.588841794E+03	 1.849800049E+03
 1.589351474E+03	 1.825599976E+03
 1.589861100E+03	 1.818599976E+03
 1.590370672E+03	 1.824000000E+03
 1.590880190E+03	 1.817199951E+03
 1.591389654E+03	 1.822400024E+03
 1.591899064E+03	 1.827199951E+03
 1.592408419E+03	 1.851800049E+03
