1042.452273	748.4000244
1043.018714	748.7999878
1043.585098	741.7999878
1044.151424	746.5999756
1044.717692	742.5999756
1045.283903	740.2000122
1045.850056	742.7999878
1046.416151	745.4000244
1046.982188	745.4000244
1047.548167	742.7999878
1048.114089	737.4000244
1048.679953	738.5999756
1049.24576	739.4000244
1049.811509	739.4000244
1050.3772	741.7999878
1050.942833	745.2000122
1051.508408	741.4000244
1052.073926	738.0
1052.639387	734.5999756
1053.204789	736.0
1053.770134	736.2000122
1054.335421	739.4000244
1054.900651	738.4000244
1055.465823	736.2000122
1056.030937	733.7999878
1056.595993	733.5999756
1057.160992	732.5999756
1057.725934	733.0
1058.290817	734.2000122
1058.855643	734.4000244
1059.420411	729.5999756
1059.985122	742.5999756
1060.549775	732.2000122
1061.114371	734.7999878
1061.678908	730.0
1062.243389	728.4000244
1062.807811	737.0
1063.372176	732.5999756
1063.936483	735.2000122
1064.500733	733.7999878
1065.064925	732.4000244
1065.62906	730.5999756
1066.193137	735.4000244
1066.757156	729.2000122
1067.321118	733.2000122
1067.885022	731.2000122
1068.448869	733.7999878
1069.012658	731.5999756
1069.57639	734.2000122
1070.140063	735.2000122
1070.70368	731.5999756
1071.267239	733.5999756
1071.83074	732.2000122
1072.394184	732.0
1072.95757	734.0
1073.520899	727.0
1074.08417	725.4000244
1074.647383	731.2000122
1075.21054	734.2000122
1075.773638	733.2000122
1076.336679	732.2000122
1076.899663	731.4000244
1077.462589	729.7999878
1078.025457	732.2000122
1078.588268	730.7999878
1079.151022	724.2000122
1079.713718	729.2000122
1080.276356	730.4000244
1080.838937	735.0
1081.401461	734.0
1081.963927	728.2000122
1082.526336	734.4000244
1083.088687	730.5999756
1083.650981	731.2000122
1084.213217	730.0
1084.775396	733.2000122
1085.337517	733.7999878
1085.899581	731.4000244
1086.461587	731.4000244
1087.023536	730.5999756
1087.585428	731.0
1088.147262	725.4000244
1088.709039	730.0
1089.270758	728.0
1089.83242	727.5999756
1090.394024	728.4000244
1090.955571	724.7999878
1091.517061	725.7999878
1092.078493	724.4000244
1092.639868	733.0
1093.201185	722.4000244
1093.762445	728.0
1094.323648	729.5999756
1094.884793	728.4000244
1095.445881	730.7999878
1096.006911	727.7999878
1096.567884	729.7999878
1097.1288	733.5999756
1097.689659	729.4000244
1098.25046	730.4000244
1098.811203	728.7999878
1099.37189	730.4000244
1099.932518	730.5999756
1100.49309	729.0
1101.053604	728.7999878
1101.614061	729.0
1102.174461	733.4000244
1102.734803	725.0
1103.295088	726.0
1103.855316	727.7999878
1104.415486	726.4000244
1104.975599	730.0
1105.535655	726.7999878
1106.095653	732.7999878
1106.655594	728.0
1107.215478	733.2000122
1107.775305	732.4000244
1108.335074	730.7999878
1108.894786	724.4000244
1109.45444	730.2000122
1110.014038	730.4000244
1110.573578	725.7999878
1111.133061	727.7999878
1111.692486	729.4000244
1112.251854	730.7999878
1112.811165	729.0
1113.370419	723.2000122
1113.929616	729.5999756
1114.488755	729.0
1115.047837	728.0
1115.606862	726.5999756
1116.16583	727.7999878
1116.72474	731.2000122
1117.283593	724.5999756
1117.842389	728.2000122
1118.401128	732.7999878
1118.959809	731.0
1119.518433	730.0
1120.077	727.5999756
1120.63551	725.2000122
1121.193963	727.4000244
1121.752358	731.7999878
1122.310697	733.2000122
1122.868978	728.4000244
1123.427202	726.2000122
1123.985368	724.2000122
1124.543478	723.7999878
1125.10153	727.5999756
1125.659526	730.7999878
1126.217464	726.4000244
1126.775345	722.2000122
1127.333168	725.5999756
1127.890935	731.0
1128.448644	727.0
1129.006297	732.4000244
1129.563892	728.2000122
1130.12143	726.5999756
1130.678911	724.5999756
1131.236335	726.5999756
1131.793701	725.0
1132.351011	730.0
1132.908263	728.7999878
1133.465458	725.7999878
1134.022597	727.5999756
1134.579678	727.0
1135.136702	724.7999878
1135.693669	731.2000122
1136.250578	727.4000244
1136.807431	728.2000122
1137.364227	731.2000122
1137.920965	722.2000122
1138.477647	728.2000122
1139.034271	729.4000244
1139.590839	728.5999756
1140.147349	730.5999756
1140.703802	728.4000244
1141.260198	725.5999756
1141.816537	726.7999878
1142.37282	726.0
1142.929045	732.5999756
1143.485213	731.0
1144.041323	727.7999878
1144.597377	726.5999756
1145.153374	728.4000244
1145.709314	729.5999756
1146.265197	729.2000122
1146.821023	725.4000244
1147.376792	723.5999756
1147.932503	724.5999756
1148.488158	730.4000244
1149.043756	732.0
1149.599297	728.5999756
1150.154781	726.7999878
1150.710207	727.7999878
1151.265577	729.5999756
1151.82089	731.7999878
1152.376146	731.0
1152.931345	728.5999756
1153.486487	726.2000122
1154.041572	726.2000122
1154.5966	727.2000122
1155.151571	726.0
1155.706485	729.0
1156.261342	728.2000122
1156.816142	725.7999878
1157.370885	730.7999878
1157.925572	733.5999756
1158.480201	723.4000244
1159.034774	732.0
1159.589289	732.0
1160.143748	730.2000122
1160.698149	727.7999878
1161.252494	726.2000122
1161.806782	730.4000244
1162.361013	732.0
1162.915187	726.2000122
1163.469304	722.2000122
1164.023364	733.2000122
1164.577368	725.7999878
1165.131314	726.5999756
1165.685204	725.2000122
1166.239036	726.0
1166.792812	725.5999756
1167.346531	729.0
1167.900193	727.7999878
1168.453798	726.5999756
1169.007347	726.2000122
1169.560838	723.4000244
1170.114273	730.2000122
1170.66765	726.2000122
1171.220971	728.5999756
1171.774235	722.5999756
1172.327443	728.2000122
1172.880593	721.2000122
1173.433687	729.0
1173.986723	730.2000122
1174.539703	726.2000122
1175.092626	727.7999878
1175.645493	722.7999878
1176.198302	729.2000122
1176.751055	730.0
1177.303751	727.4000244
1177.85639	726.5999756
1178.408972	725.7999878
1178.961498	727.0
1179.513966	728.0
1180.066378	733.2000122
1180.618733	721.4000244
1181.171032	726.2000122
1181.723273	727.2000122
1182.275458	729.0
1182.827586	725.7999878
1183.379657	729.0
1183.931672	721.7999878
1184.48363	723.7999878
1185.035531	724.4000244
1185.587375	725.2000122
1186.139162	726.2000122
1186.690893	726.5999756
1187.242567	728.7999878
1187.794184	727.4000244
1188.345745	726.7999878
1188.897249	727.7999878
1189.448696	725.0
1190.000086	729.2000122
1190.55142	727.2000122
1191.102697	723.2000122
1191.653918	726.2000122
1192.205081	724.0
1192.756188	724.5999756
1193.307238	742.4000244
1193.858232	726.5999756
1194.409169	727.2000122
1194.960049	728.5999756
1195.510872	725.4000244
1196.061639	726.0
1196.612349	732.0
1197.163003	729.7999878
1197.713599	725.4000244
1198.264139	722.5999756
1198.814623	725.0
1199.36505	727.7999878
1199.91542	726.2000122
1200.465734	727.0
1201.01599	726.4000244
1201.566191	725.4000244
1202.116334	724.2000122
1202.666421	730.2000122
1203.216452	725.2000122
1203.766425	726.0
1204.316343	729.0
1204.866203	730.4000244
1205.416007	727.0
1205.965754	726.2000122
1206.515445	726.5999756
1207.065079	722.7999878
1207.614657	726.2000122
1208.164177	728.7999878
1208.713642	727.0
1209.26305	724.4000244
1209.812401	729.4000244
1210.361695	727.0
1210.910933	724.2000122
1211.460115	722.7999878
1212.00924	723.5999756
1212.558308	727.2000122
1213.10732	727.7999878
1213.656275	725.5999756
1214.205174	727.5999756
1214.754016	723.2000122
1215.302801	730.4000244
1215.85153	726.4000244
1216.400203	727.2000122
1216.948819	726.5999756
1217.497378	729.2000122
1218.045881	723.2000122
1218.594327	726.0
1219.142717	727.7999878
1219.691051	726.2000122
1220.239327	729.0
1220.787548	727.2000122
1221.335712	730.7999878
1221.883819	729.4000244
1222.43187	724.7999878
1222.979864	729.4000244
1223.527802	716.7999878
1224.075683	727.0
1224.623508	732.7999878
1225.171277	726.0
1225.718989	728.4000244
1226.266644	726.7999878
1226.814243	726.0
1227.361786	726.4000244
1227.909272	725.0
1228.456702	725.2000122
1229.004075	724.0
1229.551392	725.4000244
1230.098652	728.0
1230.645856	720.5999756
1231.193003	726.5999756
1231.740094	725.4000244
1232.287129	727.5999756
1232.834107	727.5999756
1233.381029	727.7999878
1233.927894	729.0
1234.474703	728.7999878
1235.021455	725.2000122
1235.568151	723.2000122
1236.114791	727.0
1236.661374	727.2000122
1237.207901	722.0
1237.754372	727.4000244
1238.300786	724.4000244
1238.847144	729.0
1239.393445	729.0
1239.93969	731.4000244
1240.485879	724.7999878
1241.032011	722.2000122
1241.578087	726.7999878
1242.124106	722.5999756
1242.67007	727.7999878
1243.215976	720.2000122
1243.761827	727.0
1244.307621	722.7999878
1244.853359	722.0
1245.39904	728.2000122
1245.944665	726.0
1246.490234	721.2000122
1247.035746	726.7999878
1247.581203	725.0
1248.126602	726.7999878
1248.671946	723.7999878
1249.217233	727.5999756
1249.762464	730.0
1250.307638	725.4000244
1250.852757	727.7999878
1251.397819	725.4000244
1251.942824	728.4000244
1252.487774	721.4000244
1253.032667	723.7999878
1253.577503	721.4000244
1254.122284	726.0
1254.667008	722.5999756
1255.211676	722.2000122
1255.756288	720.2000122
1256.300843	725.5999756
1256.845342	731.0
1257.389785	728.2000122
1257.934172	728.0
1258.478502	727.4000244
1259.022776	730.7999878
1259.566994	734.2000122
1260.111156	741.7999878
1260.655261	724.7999878
1261.199311	725.5999756
1261.743304	727.5999756
1262.28724	725.4000244
1262.831121	732.2000122
1263.374945	735.2000122
1263.918713	736.4000244
1264.462425	751.5999756
1265.006081	773.7999878
1265.54968	778.2000122
1266.093223	749.7999878
1266.636711	739.0
1267.180141	726.0
1267.723516	727.2000122
1268.266835	726.7999878
1268.810097	725.5999756
1269.353303	728.0
1269.896453	730.0
1270.439547	724.4000244
1270.982584	727.7999878
1271.525566	726.5999756
1272.068491	722.4000244
1272.61136	721.2000122
1273.154173	726.0
1273.69693	726.5999756
1274.239631	724.2000122
1274.782275	727.0
1275.324864	721.7999878
1275.867396	728.2000122
1276.409872	726.5999756
1276.952292	724.5999756
1277.494656	727.5999756
1278.036964	727.2000122
1278.579215	725.5999756
1279.121411	728.4000244
1279.66355	724.7999878
1280.205634	725.2000122
1280.747661	732.4000244
1281.289632	731.0
1281.831547	729.7999878
1282.373406	735.7999878
1282.915209	737.4000244
1283.456955	747.2000122
1283.998646	779.5999756
1284.540281	870.2000122
1285.081859	1217.0
1285.623381	1587.400024
1286.164848	1122.0
1286.706258	823.2000122
1287.247612	761.0
1287.788911	738.0
1288.330153	731.2000122
1288.871339	733.2000122
1289.412469	733.7999878
1289.953543	725.5999756
1290.494561	727.0
1291.035523	725.0
1291.576428	725.5999756
1292.117278	723.2000122
1292.658072	724.0
1293.19881	728.0
1293.739492	724.4000244
1294.280118	726.0
1294.820687	726.5999756
1295.361201	724.5999756
1295.901659	723.0
1296.442061	723.2000122
1296.982406	721.4000244
1297.522696	726.5999756
1298.06293	718.4000244
1298.603108	728.0
1299.143229	717.4000244
1299.683295	722.4000244
1300.223305	723.4000244
1300.763259	723.2000122
1301.303157	722.2000122
1301.842999	724.7999878
1302.382785	718.4000244
1302.922515	723.5999756
1303.462189	723.0
1304.001807	723.7999878
1304.541369	724.2000122
1305.080875	725.7999878
1305.620326	726.2000122
1306.15972	723.5999756
1306.699058	723.5999756
1307.238341	720.0
1307.777567	717.2000122
1308.316738	716.7999878
1308.855853	723.4000244
1309.394912	720.7999878
1309.933915	722.5999756
1310.472862	722.7999878
1311.011753	722.4000244
1311.550588	720.4000244
1312.089367	725.4000244
1312.62809	723.2000122
1313.166758	721.4000244
1313.70537	719.7999878
1314.243925	724.5999756
1314.782425	725.4000244
1315.320869	720.4000244
1315.859257	723.4000244
1316.397589	723.5999756
1316.935866	722.0
1317.474086	727.7999878
1318.012251	719.7999878
1318.55036	717.2000122
1319.088413	723.7999878
1319.62641	720.2000122
1320.164351	725.7999878
1320.702236	725.2000122
1321.240066	721.0
1321.777839	717.7999878
1322.315557	720.7999878
1322.853219	718.7999878
1323.390826	721.5999756
1323.928376	723.4000244
1324.465871	722.0
1325.003309	720.0
1325.540692	720.7999878
1326.07802	719.7999878
1326.615291	724.0
1327.152506	720.5999756
1327.689666	719.5999756
1328.22677	723.7999878
1328.763818	720.2000122
1329.300811	718.7999878
1329.837747	721.4000244
1330.374628	724.2000122
1330.911453	717.7999878
1331.448222	723.0
1331.984936	719.4000244
1332.521594	716.4000244
1333.058196	717.7999878
1333.594742	722.4000244
1334.131232	718.5999756
1334.667667	722.0
1335.204046	720.7999878
1335.740369	724.5999756
1336.276637	721.2000122
1336.812848	719.5999756
1337.349004	721.2000122
1337.885105	721.2000122
1338.421149	720.4000244
1338.957138	724.4000244
1339.493071	721.4000244
1340.028949	724.4000244
1340.56477	718.0
1341.100536	719.5999756
1341.636246	719.7999878
1342.171901	718.7999878
1342.7075	717.5999756
1343.243043	722.2000122
1343.77853	716.7999878
1344.313962	722.4000244
1344.849338	722.2000122
1345.384659	717.2000122
1345.919923	724.5999756
1346.455133	724.5999756
1346.990286	728.5999756
1347.525384	720.4000244
1348.060426	720.5999756
1348.595412	720.7999878
1349.130343	724.7999878
1349.665218	719.7999878
1350.200037	720.7999878
1350.734801	720.2000122
1351.269509	721.0
1351.804162	716.7999878
1352.338758	717.4000244
1352.8733	718.0
1353.407785	719.0
1353.942215	722.0
1354.476589	721.7999878
1355.010908	721.0
1355.545171	721.7999878
1356.079379	723.5999756
1356.61353	720.0
1357.147627	724.4000244
1357.681667	723.2000122
1358.215652	726.2000122
1358.749582	726.2000122
1359.283456	724.5999756
1359.817274	725.0
1360.351037	720.2000122
1360.884744	722.5999756
1361.418395	721.0
1361.951991	725.0
1362.485531	722.7999878
1363.019016	720.4000244
1363.552445	721.0
1364.085819	723.5999756
1364.619137	725.4000244
1365.1524	716.5999756
1365.685607	724.7999878
1366.218758	724.2000122
1366.751854	721.0
1367.284894	719.2000122
1367.817879	719.7999878
1368.350808	724.4000244
1368.883682	721.5999756
1369.4165	721.7999878
1369.949263	726.0
1370.48197	744.5999756
1371.014622	731.5999756
1371.547218	726.7999878
1372.079758	718.5999756
1372.612244	723.4000244
1373.144673	720.5999756
1373.677047	723.7999878
1374.209366	724.7999878
1374.741629	725.5999756
1375.273836	725.2000122
1375.805989	722.0
1376.338085	722.5999756
1376.870126	725.7999878
1377.402112	724.0
1377.934042	721.4000244
1378.465917	727.7999878
1378.997736	721.0
1379.5295	726.5999756
1380.061208	723.7999878
1380.592861	725.7999878
1381.124459	727.7999878
1381.656	726.2000122
1382.187487	725.4000244
1382.718918	720.0
1383.250294	726.5999756
1383.781614	724.2000122
1384.312879	725.2000122
1384.844088	729.5999756
1385.375242	735.2000122
1385.90634	745.4000244
1386.437383	753.2000122
1386.968371	758.2000122
1387.499303	818.7999878
1388.03018	999.7999878
1388.561001	1915.800049
1389.091767	2045.800049
1389.622478	1039.199951
1390.153133	809.4000244
1390.683733	754.5999756
1391.214277	741.4000244
1391.744766	736.5999756
1392.2752	737.0
1392.805578	728.4000244
1393.335901	729.5999756
1393.866168	729.2000122
1394.396381	723.5999756
1394.926537	720.7999878
1395.456639	720.4000244
1395.986685	723.0
1396.516675	720.5999756
1397.046611	725.2000122
1397.576491	726.5999756
1398.106315	721.0
1398.636084	725.0
1399.165798	722.4000244
1399.695457	721.2000122
1400.22506	727.4000244
1400.754608	722.0
1401.284101	717.5999756
1401.813538	724.2000122
1402.34292	723.4000244
1402.872247	722.7999878
1403.401518	721.4000244
1403.930734	718.2000122
1404.459895	720.7999878
1404.989	723.0
1405.51805	719.4000244
1406.047045	721.2000122
1406.575984	725.0
1407.104869	726.4000244
1407.633697	731.5999756
1408.162471	725.4000244
1408.691189	734.0
1409.219852	750.2000122
1409.74846	797.2000122
1410.277013	833.7999878
1410.80551	782.5999756
1411.333952	745.4000244
1411.862339	736.7999878
1412.39067	723.2000122
1412.918946	726.4000244
1413.447167	722.0
1413.975333	722.4000244
1414.503444	722.2000122
1415.031499	724.2000122
1415.559499	731.0
1416.087444	715.5999756
1416.615333	719.4000244
1417.143167	722.4000244
1417.670947	723.0
1418.19867	718.4000244
1418.726339	720.2000122
1419.253952	722.2000122
1419.781511	715.7999878
1420.309014	720.4000244
1420.836461	719.5999756
1421.363854	720.5999756
1421.891191	722.0
1422.418474	722.7999878
1422.945701	716.4000244
1423.472872	718.2000122
1423.999989	726.2000122
1424.52705	722.2000122
1425.054057	717.0
1425.581008	722.7999878
1426.107904	722.7999878
1426.634745	725.2000122
1427.16153	723.7999878
1427.688261	719.0
1428.214936	725.2000122
1428.741556	718.5999756
1429.268121	724.0
1429.794631	718.2000122
1430.321085	720.2000122
1430.847485	717.5999756
1431.373829	718.2000122
1431.900118	724.5999756
1432.426353	722.7999878
1432.952532	722.4000244
1433.478655	719.0
1434.004724	713.5999756
1434.530738	719.0
1435.056696	718.2000122
1436.634241	761.2000122
1437.159979	722.4000244
1437.685662	718.2000122
1438.21129	722.0
1438.736863	716.5999756
1439.262381	713.5999756
1439.787843	714.0
1440.313251	718.2000122
1440.838603	726.5999756
1441.3639	718.7999878
1441.889143	718.2000122
1442.41433	719.0
1442.939462	721.0
1443.464539	716.0
1443.989561	720.0
1444.514528	719.4000244
1445.03944	717.7999878
1445.564297	718.2000122
1446.089099	716.7999878
1446.613846	720.4000244
1447.138537	717.2000122
1447.663174	721.0
1448.187756	717.5999756
1448.712282	713.2000122
1449.236754	716.4000244
1449.761171	716.7999878
1450.285532	716.2000122
1450.809839	723.4000244
1451.33409	711.7999878
1451.858287	714.2000122
1452.382428	718.2000122
1452.906515	717.5999756
1453.430546	715.4000244
1453.954523	715.2000122
1454.478444	720.0
1455.002311	719.0
1455.526123	722.4000244
1456.049879	715.2000122
1456.573581	718.7999878
1457.097227	719.2000122
1457.620819	719.7999878
1458.144356	718.4000244
1458.667837	719.4000244
1459.191264	715.0
1459.714636	717.7999878
1460.237952	718.7999878
1460.761214	716.4000244
1461.284421	720.0
1461.807573	720.4000244
1462.33067	721.2000122
1462.853712	721.0
1463.376699	718.7999878
1463.899632	715.0
1464.422509	719.4000244
1464.945331	720.0
1465.468099	718.7999878
1465.990811	717.2000122
1466.513469	715.4000244
1467.036071	719.2000122
1467.558619	718.4000244
1468.081112	714.7999878
1468.60355	718.2000122
1469.125933	714.4000244
1469.648261	717.0
1470.170534	715.5999756
1470.692752	718.4000244
1471.214916	716.5999756
1471.737024	716.5999756
1472.259078	716.5999756
1472.781077	716.4000244
1473.303021	715.2000122
1473.82491	718.5999756
1474.346744	719.5999756
1474.868523	715.4000244
1475.390248	719.2000122
1475.911917	717.4000244
1476.433532	716.0
1476.955092	712.7999878
1477.476597	720.0
1477.998047	720.2000122
1478.519442	716.2000122
1479.040783	717.2000122
1479.562068	718.5999756
1480.083299	711.2000122
1480.604475	718.5999756
1481.125596	714.4000244
1481.646663	712.7999878
1482.167674	715.7999878
1482.688631	716.7999878
1483.209533	714.5999756
1483.73038	715.0
1484.251172	713.7999878
1484.771909	718.5999756
1485.292592	718.0
1485.81322	712.4000244
1486.333793	716.7999878
1486.854311	713.2000122
1487.374775	712.4000244
1487.895183	714.4000244
1488.415537	714.2000122
1488.935836	720.4000244
1489.456081	711.5999756
1489.97627	712.4000244
1490.496405	716.0
1491.016485	716.5999756
1491.536511	713.2000122
1492.056481	715.2000122
1492.576397	715.4000244
1493.096258	713.5999756
1493.616064	714.0
1494.135816	716.4000244
1494.655513	718.2000122
1495.175155	712.4000244
1495.694742	716.7999878
1496.214274	717.4000244
1496.733752	719.0
1497.253175	712.7999878
1497.772544	714.4000244
1498.291858	716.7999878
1498.811116	717.7999878
1499.330321	714.5999756
1499.84947	720.0
1500.368565	715.7999878
1500.887605	712.0
1501.406591	713.7999878
1501.925521	712.5999756
1502.444397	716.0
1502.963219	715.4000244
1503.481985	715.7999878
1504.000697	710.4000244
1504.519355	713.7999878
1505.037957	711.7999878
1505.556505	718.0
1506.074999	715.4000244
1506.593437	716.5999756
1507.111821	714.4000244
1507.63015	715.4000244
1508.148425	717.4000244
1508.666645	712.0
1509.18481	718.4000244
1509.702921	706.5999756
1510.220977	715.5999756
1510.738979	723.4000244
1511.256925	710.5999756
1511.774817	714.4000244
1512.292655	716.0
1512.810438	717.4000244
1513.328166	716.5999756
1513.84584	720.4000244
1514.363459	713.2000122
1514.881023	714.0
1515.398533	714.7999878
1515.915988	713.4000244
1516.433389	713.7999878
1516.950734	714.4000244
1517.468026	718.5999756
1517.985263	708.2000122
1518.502445	716.0
1519.019572	715.2000122
1519.536645	713.0
1520.053664	719.2000122
1520.570628	719.7999878
1521.087537	713.0
1521.604392	715.4000244
1522.121192	715.4000244
1522.637937	716.7999878
1523.154628	714.4000244
1523.671265	713.5999756
1524.187847	710.7999878
1524.704374	718.0
1525.220847	708.5999756
1525.737265	713.4000244
1526.253629	712.7999878
1526.769938	718.4000244
1527.286192	714.7999878
1527.802392	712.0
1528.318538	713.5999756
1528.834629	712.4000244
1529.350666	712.4000244
1529.866648	712.5999756
1530.382575	716.2000122
1530.898448	716.0
1531.414266	714.5999756
1531.93003	717.7999878
1532.44574	717.4000244
1532.961395	714.2000122
1533.476995	716.5999756
1533.992541	716.0
1534.508033	715.7999878
1535.02347	717.7999878
1535.538852	712.2000122
1536.05418	708.4000244
1536.569454	714.7999878
1537.084673	712.7999878
1537.599837	715.0
1538.114947	712.2000122
1538.630003	714.4000244
1539.145004	711.7999878
1539.659951	714.5999756
1540.174843	714.5999756
1540.689681	714.0
1541.204465	711.5999756
1541.719194	713.2000122
1542.233868	718.4000244
1542.748488	714.4000244
1543.263054	714.0
1543.777565	714.5999756
1544.292022	713.0
1544.806424	712.0
1545.320772	709.5999756
1545.835066	716.5999756
1546.349305	717.0
1546.863489	714.0
1547.37762	719.7999878
1547.891696	712.4000244
1548.405717	714.7999878
1548.919684	710.4000244
1549.433597	714.4000244
1549.947455	713.0
1550.461259	717.4000244
1550.975009	711.7999878
1551.488704	711.5999756
1552.002345	710.0
1552.515931	712.5999756
1553.029463	716.4000244
1553.542941	717.2000122
1554.056364	713.2000122
1554.569733	712.2000122
1555.083048	711.7999878
1555.596308	718.7999878
1556.109514	715.5999756
1556.622665	714.0
1557.135762	717.4000244
1557.648805	715.7999878
1558.161794	717.5999756
1558.674728	713.4000244
1559.187608	714.2000122
1559.700433	712.2000122
1560.213205	717.4000244
1560.725921	710.5999756
1561.238584	713.7999878
1561.751192	716.7999878
1562.263746	711.4000244
1562.776246	713.7999878
1563.288691	712.2000122
1563.801082	709.7999878
1564.313419	715.5999756
1564.825701	711.2000122
1565.337929	711.2000122
1565.850103	714.5999756
1566.362223	711.2000122
1566.874288	713.7999878
1567.386299	712.7999878
1567.898256	716.2000122
1568.410158	712.4000244
1568.922007	712.7999878
1569.4338	716.7999878
1569.94554	712.0
1570.457226	708.7999878
1570.968857	717.4000244
1571.480434	710.4000244
1571.991956	710.2000122
1572.503425	707.7999878
1573.014839	713.2000122
1573.526199	713.7999878
1574.037505	712.7999878
1574.548756	713.4000244
1575.059953	709.2000122
1575.571096	711.4000244
1576.082185	715.7999878
1576.59322	713.4000244
1577.1042	714.0
1577.615126	714.5999756
1578.125998	709.2000122
1578.636816	716.7999878
1579.14758	716.2000122
1579.658289	711.2000122
1580.168944	710.0
1580.679545	709.5999756
1581.190092	711.4000244
1581.700585	709.7999878
1582.211023	713.7999878
1582.721407	713.5999756
1583.231737	712.4000244
1583.742013	713.0
1584.252235	711.5999756
1584.762403	711.5999756
1585.272516	713.5999756
1585.782575	711.4000244
1586.292581	713.5999756
1586.802532	717.5999756
1587.312428	710.2000122
1587.822271	710.2000122
1588.33206	713.0
1588.841794	712.4000244
1589.351474	711.4000244
1589.8611	712.0
1590.370672	712.0
1590.88019	713.4000244
1591.389654	712.0
1591.899064	710.0
1592.408419	713.5999756
