1043.018714	1017.400024
1043.585098	1013.599976
1044.151424	1011.599976
1044.717692	1022.0
1045.283903	1019.200012
1045.850056	1018.400024
1046.416151	1020.200012
1046.982188	1027.199951
1047.548167	1024.199951
1048.114089	1011.799988
1048.679953	1012.200012
1049.24576	1022.799988
1049.811509	1007.599976
1050.3772	1017.599976
1050.942833	1013.599976
1051.508408	1008.799988
1052.073926	1011.200012
1052.639387	1018.200012
1053.204789	1014.400024
1053.770134	1012.799988
1054.335421	1007.0
1054.900651	1016.200012
1055.465823	1013.799988
1056.030937	1014.200012
1056.595993	1012.0
1057.160992	1011.400024
1057.725934	1000.599976
1058.290817	1012.400024
1058.855643	1008.200012
1059.420411	1006.200012
1059.985122	1007.799988
1060.549775	1005.400024
1061.114371	1009.599976
1061.678908	1006.200012
1062.243389	993.4000244
1062.807811	1008.400024
1063.372176	996.4000244
1063.936483	1001.799988
1064.500733	995.2000122
1065.064925	1010.599976
1065.62906	1000.0
1066.193137	989.4000244
1066.757156	1003.200012
1067.321118	998.0
1067.885022	998.5999756
1068.448869	1000.799988
1069.012658	999.4000244
1069.57639	1003.799988
1070.140063	1007.200012
1070.70368	990.7999878
1071.267239	998.2000122
1071.83074	999.5999756
1072.394184	1005.599976
1072.95757	1000.799988
1073.520899	999.0
1074.08417	998.7999878
1074.647383	1006.799988
1075.21054	993.7999878
1075.773638	1002.0
1076.336679	992.5999756
1076.899663	997.5999756
1077.462589	989.7999878
1078.025457	995.4000244
1078.588268	994.2000122
1079.151022	990.4000244
1079.713718	999.0
1080.276356	984.5999756
1080.838937	1004.200012
1081.401461	996.5999756
1081.963927	996.7999878
1082.526336	989.4000244
1083.088687	996.7999878
1083.650981	994.5999756
1084.213217	989.4000244
1084.775396	985.2000122
1085.337517	987.5999756
1085.899581	989.4000244
1086.461587	988.0
1087.023536	991.0
1087.585428	1008.799988
1088.147262	989.0
1088.709039	984.0
1089.270758	989.7999878
1089.83242	985.7999878
1090.394024	989.4000244
1090.955571	994.2000122
1091.517061	994.4000244
1092.078493	988.0
1092.639868	984.5999756
1093.201185	988.5999756
1093.762445	984.4000244
1094.323648	985.5999756
1094.884793	982.7999878
1095.445881	990.0
1096.006911	988.4000244
1096.567884	983.7999878
1097.1288	981.2000122
1097.689659	986.4000244
1098.25046	980.7999878
1098.811203	985.5999756
1099.37189	984.2000122
1099.932518	982.2000122
1100.49309	987.7999878
1101.053604	985.2000122
1101.614061	974.5999756
1102.174461	984.0
1102.734803	973.2000122
1103.295088	983.2000122
1103.855316	967.0
1104.415486	983.0
1104.975599	973.5999756
1105.535655	985.0
1106.095653	984.5999756
1106.655594	982.7999878
1107.215478	982.2000122
1107.775305	985.2000122
1108.335074	987.7999878
1108.894786	986.4000244
1109.45444	979.0
1110.014038	974.2000122
1110.573578	969.2000122
1111.133061	975.4000244
1111.692486	972.2000122
1112.251854	985.5999756
1112.811165	981.0
1113.370419	977.4000244
1113.929616	978.4000244
1114.488755	971.4000244
1115.047837	978.2000122
1115.606862	974.5999756
1116.16583	969.7999878
1116.72474	964.4000244
1117.283593	974.5999756
1117.842389	973.4000244
1118.401128	973.5999756
1118.959809	972.2000122
1119.518433	971.2000122
1120.077	973.7999878
1120.63551	981.4000244
1121.193963	976.4000244
1121.752358	968.0
1122.310697	969.0
1122.868978	969.7999878
1123.427202	979.2000122
1123.985368	971.2000122
1124.543478	975.5999756
1125.10153	968.0
1125.659526	979.2000122
1126.217464	970.7999878
1126.775345	969.7999878
1127.333168	969.0
1127.890935	975.4000244
1128.448644	968.5999756
1129.006297	972.5999756
1129.563892	968.0
1130.12143	972.7999878
1130.678911	970.2000122
1131.236335	978.0
1131.793701	965.7999878
1132.351011	972.4000244
1132.908263	968.0
1133.465458	969.5999756
1134.022597	973.2000122
1134.579678	962.5999756
1135.136702	968.7999878
1135.693669	977.4000244
1136.250578	971.4000244
1136.807431	975.5999756
1137.364227	972.2000122
1137.920965	972.7999878
1138.477647	969.4000244
1139.034271	965.2000122
1139.590839	966.5999756
1140.147349	973.2000122
1140.703802	966.5999756
1141.260198	967.7999878
1141.816537	968.5999756
1142.37282	966.5999756
1142.929045	976.4000244
1143.485213	962.5999756
1144.041323	962.7999878
1144.597377	968.5999756
1145.153374	963.2000122
1145.709314	960.0
1146.265197	973.4000244
1146.821023	966.4000244
1147.376792	973.5999756
1147.932503	969.0
1148.488158	961.7999878
1149.043756	971.0
1149.599297	970.7999878
1150.154781	978.2000122
1150.710207	979.2000122
1151.265577	985.0
1151.82089	960.5999756
1152.376146	982.5999756
1152.931345	964.7999878
1153.486487	960.2000122
1154.041572	964.4000244
1154.5966	979.4000244
1155.151571	965.5999756
1155.706485	974.5999756
1156.261342	963.2000122
1156.816142	961.5999756
1157.370885	956.2000122
1157.925572	957.2000122
1158.480201	969.7999878
1159.034774	970.2000122
1159.589289	969.0
1160.143748	967.7999878
1160.698149	972.4000244
1161.252494	969.7999878
1161.806782	975.2000122
1162.361013	970.2000122
1162.915187	965.7999878
1163.469304	968.2000122
1164.023364	971.4000244
1164.577368	961.2000122
1165.131314	969.7999878
1165.685204	955.0
1166.239036	966.0
1166.792812	959.4000244
1167.346531	973.4000244
1167.900193	968.2000122
1168.453798	969.5999756
1169.007347	962.0
1169.560838	959.7999878
1170.114273	961.7999878
1170.66765	965.4000244
1171.220971	949.7999878
1171.774235	961.2000122
1172.327443	959.4000244
1172.880593	958.0
1173.433687	970.4000244
1173.986723	970.0
1174.539703	964.0
1175.092626	968.0
1175.645493	965.7999878
1176.198302	962.7999878
1176.751055	962.0
1177.303751	954.0
1177.85639	963.2000122
1178.408972	965.2000122
1178.961498	964.5999756
1179.513966	949.2000122
1180.066378	957.7999878
1180.618733	973.5999756
1181.171032	960.5999756
1181.723273	956.2000122
1182.275458	961.4000244
1182.827586	959.4000244
1183.379657	970.5999756
1183.931672	962.4000244
1184.48363	964.5999756
1185.035531	949.5999756
1185.587375	960.0
1186.139162	961.4000244
1186.690893	961.0
1187.242567	954.2000122
1187.794184	956.4000244
1188.345745	951.7999878
1188.897249	956.0
1189.448696	952.0
1190.000086	952.7999878
1190.55142	954.4000244
1191.102697	954.2000122
1191.653918	949.4000244
1192.205081	959.7999878
1192.756188	950.5999756
1193.307238	964.4000244
1193.858232	956.7999878
1194.409169	954.4000244
1194.960049	953.4000244
1195.510872	957.0
1196.061639	941.0
1196.612349	959.2000122
1197.163003	951.4000244
1197.713599	960.7999878
1198.264139	962.7999878
1198.814623	946.5999756
1199.36505	956.5999756
1199.91542	961.4000244
1200.465734	953.0
1201.01599	944.5999756
1201.566191	961.4000244
1202.116334	954.5999756
1202.666421	947.4000244
1203.216452	953.5999756
1203.766425	945.5999756
1204.316343	956.4000244
1204.866203	958.7999878
1205.416007	952.4000244
1205.965754	948.7999878
1206.515445	956.5999756
1207.065079	948.7999878
1207.614657	949.5999756
1208.164177	950.4000244
1208.713642	953.4000244
1209.26305	949.2000122
1209.812401	950.7999878
1210.361695	947.5999756
1210.910933	942.5999756
1211.460115	955.4000244
1212.00924	946.0
1212.558308	944.0
1213.10732	943.7999878
1213.656275	950.7999878
1214.205174	942.2000122
1214.754016	947.7999878
1215.302801	950.4000244
1215.85153	954.7999878
1216.400203	949.2000122
1216.948819	952.4000244
1217.497378	956.0
1218.045881	944.5999756
1218.594327	948.5999756
1219.142717	947.2000122
1219.691051	955.4000244
1220.239327	951.2000122
1220.787548	947.5999756
1221.335712	941.5999756
1221.883819	949.7999878
1222.43187	942.0
1222.979864	953.5999756
1223.527802	947.4000244
1224.075683	953.4000244
1224.623508	944.0
1225.171277	943.7999878
1225.718989	956.4000244
1226.266644	946.2000122
1226.814243	937.2000122
1227.361786	949.5999756
1227.909272	935.7999878
1228.456702	951.7999878
1229.004075	942.5999756
1229.551392	939.4000244
1230.098652	946.2000122
1230.645856	942.0
1231.193003	931.5999756
1231.740094	938.2000122
1232.287129	934.0
1232.834107	944.5999756
1233.381029	949.7999878
1233.927894	952.7999878
1234.474703	948.5999756
1235.021455	947.0
1235.568151	941.0
1236.114791	944.7999878
1236.661374	947.0
1237.207901	946.2000122
1237.754372	948.0
1238.300786	944.2000122
1238.847144	946.5999756
1239.393445	946.4000244
1239.93969	950.7999878
1240.485879	937.5999756
1241.032011	941.5999756
1241.578087	940.2000122
1242.124106	940.2000122
1242.67007	939.7999878
1243.215976	939.5999756
1243.761827	932.2000122
1244.307621	938.4000244
1244.853359	942.0
1245.39904	948.5999756
1245.944665	948.7999878
1246.490234	942.5999756
1247.035746	939.5999756
1247.581203	940.4000244
1248.126602	937.2000122
1248.671946	934.5999756
1249.217233	935.4000244
1249.762464	950.7999878
1250.307638	932.5999756
1250.852757	938.4000244
1251.397819	940.0
1251.942824	940.7999878
1252.487774	940.4000244
1253.032667	946.0
1253.577503	936.4000244
1254.122284	942.5999756
1254.667008	946.4000244
1255.211676	939.0
1255.756288	943.7999878
1256.300843	937.7999878
1256.845342	938.2000122
1257.389785	944.7999878
1257.934172	943.0
1258.478502	931.7999878
1259.022776	938.0
1259.566994	944.0
1260.111156	954.0
1260.655261	933.7999878
1261.199311	939.0
1261.743304	931.5999756
1262.28724	945.4000244
1262.831121	943.4000244
1263.374945	938.2000122
1263.918713	930.7999878
1264.462425	939.7999878
1265.006081	943.5999756
1265.54968	949.5999756
1266.093223	935.7999878
1266.636711	927.7999878
1267.180141	945.4000244
1267.723516	933.2000122
1268.266835	931.7999878
1268.810097	936.4000244
1269.353303	936.0
1269.896453	935.2000122
1270.439547	929.2000122
1270.982584	937.5999756
1271.525566	933.2000122
1272.068491	933.2000122
1272.61136	931.0
1273.154173	932.5999756
1273.69693	931.4000244
1274.239631	934.4000244
1274.782275	937.4000244
1275.324864	945.4000244
1275.867396	935.5999756
1276.409872	936.5999756
1276.952292	928.0
1277.494656	924.5999756
1278.036964	934.0
1278.579215	935.7999878
1279.121411	939.4000244
1279.66355	933.5999756
1280.205634	932.2000122
1280.747661	933.0
1281.289632	926.4000244
1281.831547	932.4000244
1282.373406	922.4000244
1282.915209	935.5999756
1283.456955	932.4000244
1283.998646	940.5999756
1284.540281	937.7999878
1285.081859	981.2000122
1285.623381	1110.599976
1286.164848	1063.0
1286.706258	954.5999756
1287.247612	936.2000122
1287.788911	928.2000122
1288.330153	926.0
1288.871339	924.2000122
1289.412469	931.5999756
1289.953543	933.7999878
1290.494561	931.4000244
1291.035523	925.7999878
1291.576428	928.7999878
1292.117278	924.2000122
1292.658072	929.2000122
1293.19881	929.0
1293.739492	932.4000244
1294.280118	936.5999756
1294.820687	933.5999756
1295.361201	932.5999756
1295.901659	926.2000122
1296.442061	935.4000244
1296.982406	937.4000244
1297.522696	925.4000244
1298.06293	934.0
1298.603108	927.0
1299.143229	924.0
1299.683295	933.5999756
1300.223305	920.4000244
1300.763259	928.2000122
1301.303157	930.7999878
1301.842999	929.0
1302.382785	925.0
1302.922515	928.0
1303.462189	923.4000244
1304.001807	929.7999878
1304.541369	927.0
1305.080875	922.0
1305.620326	926.5999756
1306.15972	916.7999878
1306.699058	920.4000244
1307.238341	920.5999756
1307.777567	926.2000122
1308.316738	925.4000244
1308.855853	918.4000244
1309.394912	924.2000122
1309.933915	922.7999878
1310.472862	917.2000122
1311.011753	929.2000122
1311.550588	935.0
1312.089367	921.0
1312.62809	931.2000122
1313.166758	919.0
1313.70537	923.2000122
1314.243925	925.0
1314.782425	918.7999878
1315.320869	920.4000244
1315.859257	927.0
1316.397589	921.7999878
1316.935866	926.7999878
1317.474086	922.7999878
1318.012251	923.5999756
1318.55036	916.7999878
1319.088413	917.7999878
1319.62641	918.5999756
1320.164351	921.4000244
1320.702236	919.7999878
1321.240066	926.0
1321.777839	921.5999756
1322.315557	920.7999878
1322.853219	916.5999756
1323.390826	917.7999878
1323.928376	924.0
1324.465871	920.2000122
1325.003309	921.4000244
1325.540692	925.0
1326.07802	912.4000244
1326.615291	932.0
1327.152506	920.2000122
1327.689666	918.5999756
1328.22677	921.7999878
1328.763818	919.5999756
1329.300811	913.4000244
1329.837747	924.4000244
1330.374628	914.0
1330.911453	921.7999878
1331.448222	922.0
1331.984936	923.0
1332.521594	917.0
1333.058196	920.2000122
1333.594742	911.4000244
1334.131232	912.7999878
1334.667667	923.0
1335.204046	914.4000244
1335.740369	916.2000122
1336.276637	917.4000244
1336.812848	922.0
1337.349004	918.4000244
1337.885105	926.0
1338.421149	918.4000244
1338.957138	916.0
1339.493071	909.0
1340.028949	916.7999878
1340.56477	911.4000244
1341.100536	915.0
1341.636246	918.2000122
1342.171901	918.2000122
1342.7075	915.7999878
1343.243043	920.4000244
1343.77853	922.0
1344.313962	921.2000122
1344.849338	920.0
1345.384659	904.4000244
1345.919923	921.4000244
1346.455133	920.0
1346.990286	924.7999878
1347.525384	907.2000122
1348.060426	918.0
1348.595412	910.0
1349.130343	913.0
1349.665218	915.5999756
1350.200037	921.7999878
1350.734801	919.0
1351.269509	902.0
1351.804162	908.7999878
1352.338758	909.5999756
1352.8733	911.5999756
1353.407785	918.4000244
1353.942215	915.5999756
1354.476589	916.5999756
1355.010908	917.5999756
1355.545171	907.7999878
1356.079379	917.2000122
1356.61353	909.4000244
1357.147627	923.2000122
1357.681667	909.5999756
1358.215652	913.5999756
1358.749582	910.4000244
1359.283456	914.7999878
1359.817274	913.5999756
1360.351037	913.2000122
1360.884744	909.5999756
1361.418395	913.4000244
1361.951991	909.4000244
1362.485531	909.0
1363.019016	914.4000244
1363.552445	917.7999878
1364.085819	910.7999878
1364.619137	918.2000122
1365.1524	918.2000122
1365.685607	914.4000244
1366.218758	915.7999878
1366.751854	902.5999756
1367.284894	910.5999756
1367.817879	912.7999878
1368.350808	908.4000244
1368.883682	908.4000244
1369.4165	910.2000122
1369.949263	910.4000244
1370.48197	918.0
1371.014622	909.2000122
1371.547218	906.5999756
1372.079758	903.5999756
1372.612244	912.4000244
1373.144673	913.5999756
1373.677047	911.4000244
1374.209366	903.0
1374.741629	906.7999878
1375.273836	911.4000244
1375.805989	900.7999878
1376.338085	913.0
1376.870126	904.4000244
1377.402112	907.2000122
1377.934042	906.4000244
1378.465917	923.5999756
1378.997736	906.7999878
1379.5295	912.0
1380.061208	908.2000122
1380.592861	903.5999756
1381.124459	903.2000122
1381.656	900.5999756
1382.187487	907.5999756
1382.718918	912.5999756
1383.250294	909.4000244
1383.781614	905.4000244
1384.312879	907.0
1384.844088	909.5999756
1385.375242	899.7999878
1385.90634	904.7999878
1386.437383	914.0
1386.968371	906.4000244
1387.499303	922.5999756
1388.03018	947.0
1388.561001	1084.599976
1389.091767	1241.400024
1389.622478	990.4000244
1390.153133	924.4000244
1390.683733	912.2000122
1391.214277	910.4000244
1391.744766	905.2000122
1392.2752	906.2000122
1392.805578	911.2000122
1393.335901	908.0
1393.866168	899.2000122
1394.396381	903.4000244
1394.926537	904.0
1395.456639	905.7999878
1395.986685	901.4000244
1396.516675	908.0
1397.046611	902.7999878
1397.576491	910.0
1398.106315	906.5999756
1398.636084	896.7999878
1399.165798	909.7999878
1399.695457	902.2000122
1400.22506	904.0
1400.754608	908.0
1401.284101	906.5999756
1401.813538	904.4000244
1402.34292	908.5999756
1402.872247	896.4000244
1403.401518	907.5999756
1403.930734	903.2000122
1404.459895	908.5999756
1404.989	908.5999756
1405.51805	902.0
1406.047045	901.4000244
1406.575984	905.2000122
1407.104869	902.7999878
1407.633697	906.2000122
1408.162471	910.0
1408.691189	909.5999756
1409.219852	903.7999878
1409.74846	914.0
1410.277013	931.7999878
1410.80551	916.4000244
1411.333952	909.4000244
1411.862339	904.2000122
1412.39067	917.7999878
1412.918946	898.0
1413.447167	902.7999878
1413.975333	899.2000122
1414.503444	897.7999878
1415.031499	909.0
1415.559499	904.7999878
1416.087444	897.5999756
1416.615333	911.5999756
1417.143167	898.2000122
1417.670947	906.5999756
1418.19867	904.0
1418.726339	904.2000122
1419.253952	898.2000122
1419.781511	904.7999878
1420.309014	901.2000122
1420.836461	897.5999756
1421.363854	902.2000122
1421.891191	897.4000244
1422.418474	897.2000122
1422.945701	903.2000122
1423.472872	895.0
1423.999989	896.0
1424.52705	904.4000244
1425.054057	894.2000122
1425.581008	904.2000122
1426.107904	896.4000244
1426.634745	903.7999878
1427.16153	905.7999878
1427.688261	897.7999878
1428.214936	911.5999756
1428.741556	898.7999878
1429.268121	896.4000244
1429.794631	901.7999878
1430.321085	903.7999878
1430.847485	887.7999878
1431.373829	901.7999878
1431.900118	892.7999878
1432.426353	896.2000122
1432.952532	893.2000122
1433.478655	902.4000244
1434.004724	896.7999878
1434.530738	890.4000244
1435.056696	893.2000122
1435.5826	901.4000244
1436.108448	905.0
1436.634241	899.0
1437.159979	896.4000244
1437.685662	894.4000244
1438.21129	894.7999878
1438.736863	898.5999756
1439.262381	901.7999878
1439.787843	901.4000244
1440.313251	899.7999878
1440.838603	896.5999756
1441.3639	899.7999878
1441.889143	902.0
1442.41433	898.4000244
1442.939462	892.5999756
1443.464539	891.2000122
1443.989561	900.0
1444.514528	889.0
1445.03944	895.5999756
1445.564297	895.2000122
1446.089099	899.0
1446.613846	895.4000244
1447.138537	892.5999756
1447.663174	888.7999878
1448.187756	898.0
1448.712282	881.7999878
1449.236754	899.4000244
1449.761171	893.2000122
1450.285532	896.0
1450.809839	898.5999756
1451.33409	902.4000244
1451.858287	885.4000244
1452.382428	890.0
1452.906515	896.2000122
1453.430546	892.2000122
1453.954523	895.0
1454.478444	896.0
1455.002311	895.2000122
1455.526123	895.0
1456.049879	894.5999756
1456.573581	890.4000244
1457.097227	899.5999756
1457.620819	884.4000244
1458.144356	888.0
1458.667837	902.2000122
1459.191264	891.0
1459.714636	898.0
1460.237952	885.5999756
1460.761214	890.2000122
1461.284421	900.2000122
1461.807573	894.4000244
1462.33067	890.0
1462.853712	900.0
1463.376699	886.5999756
1463.899632	891.0
1464.422509	897.2000122
1464.945331	890.0
1465.468099	895.7999878
1465.990811	883.4000244
1466.513469	892.7999878
1467.036071	896.4000244
1467.558619	889.2000122
1468.081112	890.5999756
1468.60355	892.4000244
1469.125933	892.5999756
1469.648261	893.4000244
1470.170534	887.0
1470.692752	880.4000244
1471.214916	889.7999878
1471.737024	889.7999878
1472.259078	885.4000244
1472.781077	885.4000244
1473.303021	890.5999756
1473.82491	886.5999756
1474.346744	890.7999878
1474.868523	889.2000122
1475.390248	887.0
1475.911917	888.2000122
1476.433532	892.0
1476.955092	886.0
1477.476597	888.2000122
1477.998047	889.5999756
1478.519442	899.0
1479.040783	889.0
1479.562068	888.0
1480.083299	886.7999878
1480.604475	880.4000244
1481.125596	885.4000244
1481.646663	888.0
1482.167674	888.5999756
1482.688631	886.2000122
1483.209533	886.4000244
1483.73038	895.5999756
1484.251172	883.7999878
1484.771909	886.7999878
1485.292592	887.5999756
1485.81322	883.0
1486.333793	890.2000122
1486.854311	889.5999756
1487.374775	884.2000122
1487.895183	884.0
1488.415537	883.2000122
1488.935836	878.7999878
1489.456081	893.0
1489.97627	886.2000122
1490.496405	889.7999878
1491.016485	886.5999756
1491.536511	878.7999878
1492.056481	888.4000244
1492.576397	881.4000244
1493.096258	886.4000244
1493.616064	879.0
1494.135816	885.7999878
1494.655513	878.4000244
1495.175155	883.5999756
1495.694742	880.4000244
1496.214274	879.2000122
1496.733752	879.4000244
1497.253175	885.0
1497.772544	892.2000122
1498.291858	882.4000244
1498.811116	894.5999756
1499.330321	881.7999878
1499.84947	881.4000244
1500.368565	891.0
1500.887605	879.4000244
1501.406591	885.7999878
1501.925521	878.4000244
1502.444397	883.7999878
1502.963219	884.2000122
1503.481985	883.0
1504.000697	875.7999878
1504.519355	880.0
1505.037957	884.5999756
1505.556505	880.7999878
1506.074999	879.5999756
1506.593437	879.2000122
1507.111821	882.5999756
1507.63015	878.4000244
1508.148425	876.0
1508.666645	874.4000244
1509.18481	882.4000244
1509.702921	883.4000244
1510.220977	883.5999756
1510.738979	878.2000122
1511.256925	879.0
1511.774817	885.4000244
1512.292655	891.4000244
1512.810438	885.0
1513.328166	882.4000244
1513.84584	884.2000122
1514.363459	879.0
1514.881023	887.7999878
1515.398533	882.2000122
1515.915988	878.7999878
1516.433389	883.7999878
1516.950734	873.2000122
1517.468026	883.7999878
1517.985263	873.7999878
1518.502445	883.7999878
1519.019572	882.4000244
1519.536645	879.0
1520.053664	884.4000244
1520.570628	882.4000244
1521.087537	878.5999756
1521.604392	873.7999878
1522.121192	881.2000122
1522.637937	883.2000122
1523.154628	882.2000122
1523.671265	873.0
1524.187847	885.2000122
1524.704374	877.4000244
1525.220847	885.5999756
1525.737265	880.2000122
1526.253629	870.0
1526.769938	888.2000122
1527.286192	880.4000244
1527.802392	868.7999878
1528.318538	879.5999756
1528.834629	880.0
1529.350666	872.4000244
1529.866648	883.0
1530.382575	876.4000244
1530.898448	882.0
1531.414266	878.0
1531.93003	875.5999756
1532.44574	882.2000122
1532.961395	878.7999878
1533.476995	875.7999878
1533.992541	880.5999756
1534.508033	873.0
1535.02347	873.5999756
1535.538852	873.4000244
1536.05418	876.2000122
1536.569454	875.7999878
1537.084673	881.2000122
1537.599837	867.2000122
1538.114947	874.4000244
1538.630003	874.5999756
1539.145004	876.4000244
1539.659951	881.2000122
1540.174843	881.2000122
1540.689681	884.4000244
1541.204465	872.0
1541.719194	886.2000122
1542.233868	881.4000244
1542.748488	875.5999756
1543.263054	873.7999878
1543.777565	873.2000122
1544.292022	870.4000244
1544.806424	880.7999878
1545.320772	876.2000122
1545.835066	878.4000244
1546.349305	873.0
1546.863489	872.5999756
1547.37762	870.2000122
1547.891696	881.4000244
1548.405717	877.0
1548.919684	873.5999756
1549.433597	871.7999878
1549.947455	876.2000122
1550.461259	877.5999756
1550.975009	884.4000244
1551.488704	872.5999756
1552.002345	873.5999756
1552.515931	874.5999756
1553.029463	871.5999756
1553.542941	870.2000122
1554.056364	876.4000244
1554.569733	873.5999756
1555.083048	879.4000244
1555.596308	882.7999878
1556.109514	881.5999756
1556.622665	876.4000244
1557.135762	880.7999878
1557.648805	880.2000122
1558.161794	870.2000122
1558.674728	869.7999878
1559.187608	879.2000122
1559.700433	881.5999756
1560.213205	872.4000244
1560.725921	875.2000122
1561.238584	881.5999756
1561.751192	871.7999878
1562.263746	876.7999878
1562.776246	872.5999756
1563.288691	875.4000244
1563.801082	870.0
1564.313419	874.4000244
1564.825701	872.2000122
1565.337929	880.4000244
1565.850103	872.2000122
1566.362223	874.0
1566.874288	882.2000122
1567.386299	878.2000122
1567.898256	877.5999756
1568.410158	876.0
1568.922007	873.5999756
1569.4338	881.7999878
1569.94554	873.5999756
1570.457226	873.2000122
1570.968857	876.4000244
1571.480434	874.7999878
1571.991956	878.4000244
1572.503425	877.0
1573.014839	872.5999756
1573.526199	871.7999878
1574.037505	870.2000122
1574.548756	873.4000244
1575.059953	867.5999756
1575.571096	873.7999878
1576.082185	875.4000244
1576.59322	872.4000244
1577.1042	876.5999756
1577.615126	878.2000122
1578.125998	874.0
1578.636816	868.4000244
1579.14758	873.5999756
1579.658289	873.0
1580.168944	877.4000244
1580.679545	880.7999878
1581.190092	869.7999878
1581.700585	870.7999878
1582.211023	874.4000244
1582.721407	870.7999878
1583.231737	871.5999756
1583.742013	872.0
1584.252235	880.7999878
1584.762403	867.0
1585.272516	877.4000244
1585.782575	871.0
1586.292581	876.2000122
1586.802532	870.4000244
1587.312428	872.7999878
1587.822271	873.5999756
1588.33206	862.7999878
1588.841794	867.7999878
1589.351474	865.7999878
1589.8611	877.4000244
1590.370672	867.5999756
1590.88019	871.5999756
1591.389654	879.0
1591.899064	873.4000244
1592.408419	872.7999878
