1042.452273	690.5999756
1043.018714	687.7999878
1043.585098	689.0
1044.151424	688.2000122
1044.717692	687.2000122
1045.283903	686.7999878
1045.850056	687.5999756
1046.416151	683.4000244
1046.982188	681.7999878
1047.548167	683.7999878
1048.114089	686.0
1048.679953	684.4000244
1049.24576	681.5999756
1049.811509	678.7999878
1050.3772	684.0
1050.942833	688.4000244
1051.508408	679.2000122
1052.073926	681.7999878
1052.639387	680.4000244
1053.204789	681.2000122
1053.770134	677.4000244
1054.335421	680.5999756
1054.900651	678.0
1055.465823	678.5999756
1056.030937	680.7999878
1056.595993	677.5999756
1057.160992	677.4000244
1057.725934	675.0
1058.290817	675.0
1058.855643	677.0
1059.420411	679.0
1059.985122	678.7999878
1060.549775	676.7999878
1061.114371	675.5999756
1061.678908	675.4000244
1062.243389	675.0
1062.807811	677.5999756
1063.372176	678.5999756
1063.936483	679.0
1064.500733	676.0
1065.064925	677.5999756
1065.62906	675.0
1066.193137	673.0
1066.757156	675.7999878
1067.321118	677.2000122
1067.885022	673.7999878
1068.448869	674.5999756
1069.012658	676.2000122
1069.57639	676.2000122
1070.140063	678.4000244
1070.70368	679.2000122
1071.267239	675.4000244
1071.83074	673.5999756
1072.394184	674.0
1072.95757	675.4000244
1073.520899	673.5999756
1074.08417	677.2000122
1074.647383	674.5999756
1075.21054	673.7999878
1075.773638	673.5999756
1076.336679	674.0
1076.899663	676.5999756
1077.462589	675.5999756
1078.025457	673.5999756
1078.588268	676.0
1079.151022	676.2000122
1079.713718	673.0
1080.276356	675.2000122
1080.838937	675.0
1081.401461	675.2000122
1081.963927	674.0
1082.526336	675.0
1083.088687	674.7999878
1083.650981	671.5999756
1084.213217	675.4000244
1084.775396	670.5999756
1085.337517	676.4000244
1085.899581	673.2000122
1086.461587	675.7999878
1087.023536	674.0
1087.585428	674.7999878
1088.147262	672.2000122
1088.709039	673.7999878
1089.270758	675.7999878
1089.83242	675.0
1090.394024	677.5999756
1090.955571	673.7999878
1091.517061	675.4000244
1092.078493	676.2000122
1092.639868	675.2000122
1093.201185	672.7999878
1093.762445	674.2000122
1094.323648	674.5999756
1094.884793	675.7999878
1095.445881	676.4000244
1096.006911	675.2000122
1096.567884	675.0
1097.1288	681.0
1097.689659	675.4000244
1098.25046	674.0
1098.811203	673.7999878
1099.37189	670.2000122
1099.932518	675.7999878
1100.49309	675.5999756
1101.053604	675.0
1101.614061	674.2000122
1102.174461	671.0
1102.734803	675.5999756
1103.295088	676.4000244
1103.855316	676.0
1104.415486	674.4000244
1104.975599	677.7999878
1105.535655	672.2000122
1106.095653	675.2000122
1106.655594	671.7999878
1107.215478	675.2000122
1107.775305	673.0
1108.335074	672.2000122
1108.894786	674.4000244
1109.45444	676.0
1110.014038	676.5999756
1110.573578	670.7999878
1111.133061	674.4000244
1111.692486	674.5999756
1112.251854	673.4000244
1112.811165	674.7999878
1113.370419	670.4000244
1113.929616	675.2000122
1114.488755	674.7999878
1115.047837	671.0
1115.606862	670.2000122
1116.16583	677.2000122
1116.72474	673.5999756
1117.283593	673.4000244
1117.842389	673.0
1118.401128	672.0
1118.959809	673.2000122
1119.518433	674.5999756
1120.077	672.7999878
1120.63551	673.0
1121.193963	673.0
1121.752358	674.7999878
1122.310697	673.4000244
1122.868978	675.0
1123.427202	673.4000244
1123.985368	673.0
1124.543478	674.0
1125.10153	675.7999878
1125.659526	677.0
1126.217464	675.0
1126.775345	671.5999756
1127.333168	675.5999756
1127.890935	673.2000122
1128.448644	670.0
1129.006297	671.7999878
1129.563892	676.0
1130.12143	674.5999756
1130.678911	672.2000122
1131.236335	672.5999756
1131.793701	672.4000244
1132.351011	675.0
1132.908263	673.0
1133.465458	674.7999878
1134.022597	674.4000244
1134.579678	672.4000244
1135.136702	672.7999878
1135.693669	673.0
1136.250578	672.4000244
1136.807431	674.4000244
1137.364227	676.2000122
1137.920965	674.4000244
1138.477647	673.4000244
1139.034271	673.2000122
1139.590839	673.0
1140.147349	672.7999878
1140.703802	673.7999878
1141.260198	671.7999878
1141.816537	674.4000244
1142.37282	671.4000244
1142.929045	673.2000122
1143.485213	674.7999878
1144.041323	672.4000244
1144.597377	673.7999878
1145.153374	672.7999878
1145.709314	672.0
1146.265197	673.4000244
1146.821023	672.5999756
1147.376792	673.2000122
1147.932503	675.5999756
1148.488158	673.4000244
1149.043756	674.5999756
1149.599297	675.0
1150.154781	674.7999878
1150.710207	677.0
1151.265577	677.4000244
1151.82089	672.2000122
1152.376146	674.0
1152.931345	670.0
1153.486487	673.0
1154.041572	673.7999878
1154.5966	675.2000122
1155.151571	674.7999878
1155.706485	670.7999878
1156.261342	671.4000244
1156.816142	670.2000122
1157.370885	673.0
1157.925572	673.4000244
1158.480201	671.2000122
1159.034774	670.2000122
1159.589289	675.4000244
1160.143748	675.4000244
1160.698149	675.4000244
1161.252494	675.5999756
1161.806782	673.5999756
1162.361013	675.0
1162.915187	671.4000244
1163.469304	672.4000244
1164.023364	673.0
1164.577368	671.4000244
1165.131314	672.5999756
1165.685204	673.0
1166.239036	674.0
1166.792812	671.4000244
1167.346531	674.0
1167.900193	674.0
1168.453798	671.5999756
1169.007347	673.0
1169.560838	672.0
1170.114273	672.4000244
1170.66765	675.4000244
1171.220971	672.4000244
1171.774235	672.2000122
1172.327443	675.5999756
1172.880593	674.2000122
1173.433687	672.7999878
1173.986723	671.0
1174.539703	672.7999878
1175.092626	674.0
1175.645493	672.2000122
1176.198302	674.7999878
1176.751055	670.4000244
1177.303751	674.2000122
1177.85639	673.2000122
1178.408972	673.4000244
1178.961498	672.4000244
1179.513966	671.7999878
1180.066378	675.4000244
1180.618733	669.0
1181.171032	673.2000122
1181.723273	671.7999878
1182.275458	671.2000122
1182.827586	669.2000122
1183.379657	672.7999878
1183.931672	673.0
1184.48363	674.4000244
1185.035531	675.4000244
1185.587375	672.2000122
1186.139162	672.4000244
1186.690893	675.4000244
1187.242567	670.4000244
1187.794184	675.5999756
1188.345745	672.4000244
1188.897249	672.0
1189.448696	673.0
1190.000086	672.2000122
1190.55142	670.7999878
1191.102697	669.5999756
1191.653918	672.5999756
1192.205081	673.7999878
1192.756188	672.5999756
1193.307238	687.0
1193.858232	675.2000122
1194.409169	672.2000122
1194.960049	674.5999756
1195.510872	673.7999878
1196.061639	672.0
1196.612349	673.2000122
1197.163003	673.0
1197.713599	673.0
1198.264139	672.5999756
1198.814623	675.5999756
1199.36505	671.5999756
1199.91542	675.7999878
1200.465734	675.5999756
1201.01599	673.0
1201.566191	671.7999878
1202.116334	673.0
1202.666421	674.4000244
1203.216452	670.5999756
1203.766425	672.7999878
1204.316343	676.4000244
1204.866203	676.4000244
1205.416007	673.0
1205.965754	673.7999878
1206.515445	673.5999756
1207.065079	672.4000244
1207.614657	676.5999756
1208.164177	672.5999756
1208.713642	672.4000244
1209.26305	673.5999756
1209.812401	675.2000122
1210.361695	675.2000122
1210.910933	672.4000244
1211.460115	675.7999878
1212.00924	675.0
1212.558308	673.4000244
1213.10732	671.4000244
1213.656275	671.0
1214.205174	675.2000122
1214.754016	673.0
1215.302801	675.7999878
1215.85153	675.0
1216.400203	672.5999756
1216.948819	672.0
1217.497378	674.4000244
1218.045881	673.4000244
1218.594327	676.4000244
1219.142717	672.4000244
1219.691051	677.4000244
1220.239327	675.0
1220.787548	673.0
1221.335712	676.2000122
1221.883819	676.4000244
1222.43187	674.5999756
1222.979864	674.0
1223.527802	675.7999878
1224.075683	677.5999756
1224.623508	672.2000122
1225.171277	674.5999756
1225.718989	674.4000244
1226.266644	674.2000122
1226.814243	675.2000122
1227.361786	673.0
1227.909272	675.7999878
1228.456702	675.7999878
1229.004075	674.5999756
1229.551392	674.2000122
1230.098652	675.4000244
1230.645856	676.7999878
1231.193003	675.4000244
1231.740094	676.7999878
1232.287129	673.7999878
1232.834107	677.4000244
1233.381029	676.0
1233.927894	673.5999756
1234.474703	676.2000122
1235.021455	673.0
1235.568151	673.7999878
1236.114791	676.0
1236.661374	674.4000244
1237.207901	674.2000122
1237.754372	672.0
1238.300786	672.0
1238.847144	674.4000244
1239.393445	675.5999756
1239.93969	678.4000244
1240.485879	678.7999878
1241.032011	673.2000122
1241.578087	675.7999878
1242.124106	676.0
1242.67007	672.2000122
1243.215976	672.5999756
1243.761827	677.7999878
1244.307621	677.4000244
1244.853359	681.2000122
1245.39904	677.5999756
1245.944665	673.5999756
1246.490234	677.4000244
1247.035746	676.2000122
1247.581203	677.0
1248.126602	677.0
1248.671946	675.4000244
1249.217233	676.0
1249.762464	680.5999756
1250.307638	677.4000244
1250.852757	678.7999878
1251.397819	677.5999756
1251.942824	678.5999756
1252.487774	676.5999756
1253.032667	677.7999878
1253.577503	676.2000122
1254.122284	673.5999756
1254.667008	673.5999756
1255.211676	678.7999878
1255.756288	678.0
1256.300843	678.2000122
1256.845342	677.4000244
1257.389785	676.7999878
1257.934172	675.7999878
1258.478502	679.2000122
1259.022776	680.5999756
1259.566994	683.7999878
1260.111156	689.0
1260.655261	678.5999756
1261.199311	680.7999878
1261.743304	678.5999756
1262.28724	681.5999756
1262.831121	682.7999878
1263.374945	688.5999756
1263.918713	695.2000122
1264.462425	706.5999756
1265.006081	735.2000122
1265.54968	739.4000244
1266.093223	706.4000244
1266.636711	688.5999756
1267.180141	681.0
1267.723516	682.5999756
1268.266835	682.2000122
1268.810097	681.7999878
1269.353303	680.7999878
1269.896453	677.4000244
1270.439547	674.5999756
1270.982584	679.7999878
1271.525566	679.7999878
1272.068491	678.0
1272.61136	680.4000244
1273.154173	677.4000244
1273.69693	678.4000244
1274.239631	678.2000122
1274.782275	676.0
1275.324864	679.7999878
1275.867396	677.4000244
1276.409872	679.2000122
1276.952292	677.2000122
1277.494656	677.5999756
1278.036964	681.7999878
1278.579215	679.2000122
1279.121411	683.0
1279.66355	681.2000122
1280.205634	685.0
1280.747661	680.0
1281.289632	685.4000244
1281.831547	688.2000122
1282.373406	697.0
1282.915209	701.5999756
1283.456955	722.0
1283.998646	771.0
1284.540281	909.4000244
1285.081859	1354.0
1285.623381	1619.0
1286.164848	1050.599976
1286.706258	784.7999878
1287.247612	720.7999878
1287.788911	704.5999756
1288.330153	696.0
1288.871339	689.5999756
1289.412469	686.4000244
1289.953543	684.7999878
1290.494561	685.5999756
1291.035523	682.2000122
1291.576428	682.0
1292.117278	679.0
1292.658072	677.5999756
1293.19881	681.0
1293.739492	678.4000244
1294.280118	678.7999878
1294.820687	676.5999756
1295.361201	677.5999756
1295.901659	678.5999756
1296.442061	675.2000122
1296.982406	677.2000122
1297.522696	679.2000122
1298.06293	676.4000244
1298.603108	676.7999878
1299.143229	678.4000244
1299.683295	678.4000244
1300.223305	676.0
1300.763259	676.0
1301.303157	678.5999756
1301.842999	676.7999878
1302.382785	677.4000244
1302.922515	676.7999878
1303.462189	679.2000122
1304.001807	677.0
1304.541369	676.7999878
1305.080875	674.4000244
1305.620326	677.0
1306.15972	678.0
1306.699058	674.7999878
1307.238341	678.2000122
1307.777567	675.4000244
1308.316738	673.4000244
1308.855853	680.0
1309.394912	678.0
1309.933915	675.5999756
1310.472862	677.4000244
1311.011753	678.7999878
1311.550588	675.7999878
1312.089367	675.5999756
1312.62809	676.5999756
1313.166758	676.5999756
1313.70537	674.4000244
1314.243925	673.4000244
1314.782425	674.7999878
1315.320869	677.0
1315.859257	672.7999878
1316.397589	677.5999756
1316.935866	675.5999756
1317.474086	676.2000122
1318.012251	678.4000244
1318.55036	679.7999878
1319.088413	676.2000122
1319.62641	674.2000122
1320.164351	676.7999878
1320.702236	675.4000244
1321.240066	675.4000244
1321.777839	672.4000244
1322.315557	675.2000122
1322.853219	676.5999756
1323.390826	674.4000244
1323.928376	678.4000244
1324.465871	678.2000122
1325.003309	675.0
1325.540692	678.2000122
1326.07802	675.4000244
1326.615291	675.5999756
1327.152506	676.5999756
1327.689666	677.0
1328.22677	676.7999878
1328.763818	674.7999878
1329.300811	676.4000244
1329.837747	676.0
1330.374628	674.2000122
1330.911453	676.4000244
1331.448222	675.5999756
1331.984936	677.0
1332.521594	679.5999756
1333.058196	675.4000244
1333.594742	678.5999756
1334.131232	674.5999756
1334.667667	674.7999878
1335.204046	676.7999878
1335.740369	673.2000122
1336.276637	677.4000244
1336.812848	676.7999878
1337.349004	678.5999756
1337.885105	675.5999756
1338.421149	677.2000122
1338.957138	675.7999878
1339.493071	677.4000244
1340.028949	674.4000244
1340.56477	676.5999756
1341.100536	674.2000122
1341.636246	677.0
1342.171901	678.0
1342.7075	675.2000122
1343.243043	676.2000122
1343.77853	679.2000122
1344.313962	679.7999878
1344.849338	676.4000244
1345.384659	676.7999878
1345.919923	674.2000122
1346.455133	675.7999878
1346.990286	677.5999756
1347.525384	675.0
1348.060426	676.2000122
1348.595412	677.7999878
1349.130343	676.5999756
1349.665218	677.0
1350.200037	677.4000244
1350.734801	677.5999756
1351.269509	673.5999756
1351.804162	676.7999878
1352.338758	674.2000122
1352.8733	673.5999756
1353.407785	675.7999878
1353.942215	679.7999878
1354.476589	676.5999756
1355.010908	676.0
1355.545171	679.5999756
1356.079379	676.4000244
1356.61353	677.0
1357.147627	676.7999878
1357.681667	675.7999878
1358.215652	674.4000244
1358.749582	680.4000244
1359.283456	677.7999878
1359.817274	676.4000244
1360.351037	680.0
1360.884744	679.7999878
1361.418395	677.4000244
1361.951991	675.0
1362.485531	677.7999878
1363.019016	677.2000122
1363.552445	676.0
1364.085819	676.4000244
1364.619137	680.7999878
1365.1524	679.4000244
1365.685607	679.7999878
1366.218758	682.0
1366.751854	680.0
1367.284894	682.2000122
1367.817879	678.7999878
1368.350808	675.7999878
1368.883682	679.5999756
1369.4165	680.5999756
1369.949263	687.2000122
1370.48197	706.2000122
1371.014622	690.4000244
1371.547218	679.4000244
1372.079758	679.5999756
1372.612244	679.2000122
1373.144673	681.5999756
1373.677047	677.2000122
1374.209366	677.5999756
1374.741629	677.0
1375.273836	676.4000244
1375.805989	677.7999878
1376.338085	677.0
1376.870126	681.7999878
1377.402112	681.2000122
1377.934042	677.7999878
1378.465917	678.7999878
1378.997736	678.5999756
1379.5295	680.0
1380.061208	681.5999756
1380.592861	680.2000122
1381.124459	683.0
1381.656	681.2000122
1382.187487	683.0
1382.718918	684.4000244
1383.250294	686.2000122
1383.781614	688.5999756
1384.312879	687.4000244
1384.844088	690.0
1385.375242	695.0
1385.90634	701.0
1386.437383	716.2000122
1386.968371	743.4000244
1387.499303	803.2000122
1388.03018	1102.400024
1388.561001	2183.600098
1389.091767	2096.800049
1389.622478	1027.599976
1390.153133	778.4000244
1390.683733	724.2000122
1391.214277	702.7999878
1391.744766	694.4000244
1392.2752	694.0
1392.805578	688.2000122
1393.335901	688.0
1393.866168	687.0
1394.396381	683.0
1394.926537	680.7999878
1395.456639	682.0
1395.986685	682.2000122
1396.516675	681.2000122
1397.046611	679.2000122
1397.576491	680.2000122
1398.106315	681.4000244
1398.636084	677.5999756
1399.165798	678.5999756
1399.695457	678.5999756
1400.22506	679.5999756
1400.754608	678.7999878
1401.284101	676.0
1401.813538	681.5999756
1402.34292	678.4000244
1402.872247	677.2000122
1403.401518	680.2000122
1403.930734	678.2000122
1404.459895	680.2000122
1404.989	682.0
1405.51805	680.7999878
1406.047045	682.0
1406.575984	681.4000244
1407.104869	680.7999878
1407.633697	686.5999756
1408.162471	690.5999756
1408.691189	694.2000122
1409.219852	717.4000244
1409.74846	767.2000122
1410.277013	800.5999756
1410.80551	738.4000244
1411.333952	698.5999756
1411.862339	687.0
1412.39067	681.7999878
1412.918946	684.5999756
1413.447167	676.0
1413.975333	678.7999878
1414.503444	679.2000122
1415.031499	679.7999878
1415.559499	685.5999756
1416.087444	675.4000244
1416.615333	678.2000122
1417.143167	676.0
1417.670947	676.5999756
1418.19867	677.7999878
1418.726339	679.0
1419.253952	674.5999756
1419.781511	679.7999878
1420.309014	675.4000244
1420.836461	675.0
1421.363854	677.4000244
1421.891191	675.4000244
1422.418474	677.2000122
1422.945701	676.4000244
1423.472872	676.7999878
1423.999989	676.5999756
1424.52705	675.7999878
1425.054057	681.7999878
1425.581008	675.7999878
1426.107904	676.5999756
1426.634745	678.5999756
1427.16153	676.0
1427.688261	675.5999756
1428.214936	673.2000122
1428.741556	674.4000244
1429.268121	676.5999756
1429.794631	674.7999878
1430.321085	676.0
1430.847485	672.5999756
1431.373829	672.4000244
1431.900118	674.0
1432.426353	673.4000244
1432.952532	673.0
1433.478655	671.7999878
1434.004724	672.5999756
1434.530738	674.7999878
1435.056696	674.2000122
1435.5826	675.7999878
1436.108448	674.5999756
1436.634241	672.7999878
1437.159979	671.4000244
1437.685662	671.5999756
1438.21129	674.0
1438.736863	673.4000244
1439.262381	670.4000244
1439.787843	676.0
1440.313251	671.4000244
1440.838603	671.7999878
1441.3639	674.7999878
1441.889143	672.2000122
1442.41433	674.4000244
1442.939462	673.7999878
1443.464539	673.0
1443.989561	670.4000244
1444.514528	672.7999878
1445.03944	673.4000244
1445.564297	672.5999756
1446.089099	674.2000122
1446.613846	672.0
1447.138537	671.0
1447.663174	671.5999756
1448.187756	673.0
1448.712282	673.5999756
1449.236754	672.0
1449.761171	673.5999756
1450.285532	674.0
1450.809839	671.0
1451.33409	674.0
1451.858287	673.0
1452.382428	670.7999878
1452.906515	672.2000122
1453.430546	673.4000244
1453.954523	672.0
1454.478444	673.2000122
1455.002311	671.2000122
1455.526123	672.7999878
1456.049879	671.4000244
1456.573581	669.5999756
1457.097227	672.4000244
1457.620819	671.2000122
1458.144356	670.4000244
1458.667837	672.5999756
1459.191264	673.2000122
1459.714636	672.7999878
1460.237952	674.7999878
1460.761214	669.7999878
1461.284421	671.0
1461.807573	671.2000122
1462.33067	672.4000244
1462.853712	669.7999878
1463.376699	671.0
1463.899632	673.5999756
1464.422509	674.2000122
1464.945331	671.4000244
1465.468099	671.5999756
1465.990811	670.2000122
1466.513469	670.4000244
1467.036071	671.4000244
1468.081112	669.7999878
1468.60355	673.0
1469.125933	670.5999756
1469.648261	670.0
1470.170534	669.7999878
1470.692752	672.5999756
1471.214916	671.4000244
1471.737024	672.0
1472.259078	671.0
1472.781077	665.5999756
1473.303021	671.2000122
1473.82491	668.5999756
1474.346744	671.5999756
1474.868523	671.7999878
1475.390248	670.7999878
1475.911917	669.7999878
1476.433532	669.7999878
1476.955092	671.4000244
1477.476597	671.2000122
1477.998047	672.2000122
1478.519442	669.4000244
1479.040783	671.7999878
1479.562068	668.7999878
1480.083299	671.2000122
1480.604475	671.7999878
1481.125596	672.2000122
1481.646663	669.2000122
1482.167674	670.7999878
1482.688631	671.5999756
1483.209533	671.7999878
1483.73038	673.7999878
1484.251172	669.2000122
1484.771909	671.2000122
1485.292592	670.7999878
1485.81322	672.0
1486.333793	669.2000122
1486.854311	669.5999756
1487.374775	673.0
1487.895183	672.5999756
1488.415537	669.0
1488.935836	670.5999756
1489.456081	670.2000122
1489.97627	669.2000122
1490.496405	670.0
1491.016485	670.2000122
1491.536511	668.7999878
1492.056481	669.7999878
1492.576397	667.4000244
1493.096258	670.7999878
1493.616064	668.4000244
1494.135816	672.0
1494.655513	670.2000122
1495.175155	669.4000244
1495.694742	672.7999878
1496.214274	669.4000244
1496.733752	670.4000244
1497.253175	669.0
1497.772544	670.5999756
1498.291858	670.7999878
1498.811116	671.7999878
1499.330321	670.5999756
1499.84947	677.0
1500.368565	669.2000122
1500.887605	669.4000244
1501.406591	668.4000244
1501.925521	669.7999878
1502.444397	671.7999878
1502.963219	669.5999756
1503.481985	669.4000244
1504.000697	670.4000244
1504.519355	670.2000122
1505.037957	671.0
1505.556505	668.0
1506.074999	669.5999756
1506.593437	669.4000244
1507.111821	670.7999878
1507.63015	667.5999756
1508.148425	668.4000244
1508.666645	669.7999878
1509.18481	669.4000244
1509.702921	668.5999756
1510.220977	673.4000244
1510.738979	676.4000244
1511.256925	668.0
1511.774817	670.2000122
1512.292655	669.4000244
1512.810438	670.7999878
1513.328166	669.4000244
1513.84584	669.7999878
1514.363459	670.4000244
1514.881023	668.4000244
1515.398533	668.7999878
1515.915988	670.5999756
1516.433389	666.4000244
1516.950734	671.0
1517.468026	666.4000244
1517.985263	669.2000122
1518.502445	671.2000122
1519.019572	670.5999756
1519.536645	671.7999878
1520.053664	671.0
1520.570628	668.0
1521.087537	669.2000122
1521.604392	670.7999878
1522.121192	669.7999878
1522.637937	668.7999878
1523.154628	670.5999756
1523.671265	669.4000244
1524.187847	673.2000122
1524.704374	669.7999878
1525.220847	669.2000122
1525.737265	669.2000122
1526.253629	674.7999878
1526.769938	670.5999756
1527.286192	668.2000122
1527.802392	670.2000122
1528.318538	670.5999756
1528.834629	668.4000244
1529.350666	669.5999756
1529.866648	670.5999756
1530.382575	669.5999756
1530.898448	670.5999756
1531.414266	668.7999878
1531.93003	671.4000244
1532.44574	671.2000122
1532.961395	669.7999878
1533.476995	667.5999756
1533.992541	667.2000122
1534.508033	670.4000244
1535.02347	669.2000122
1535.538852	668.0
1536.05418	670.4000244
1536.569454	670.0
1537.084673	669.0
1537.599837	670.0
1538.114947	668.0
1538.630003	670.0
1539.145004	672.0
1539.659951	671.7999878
1540.174843	669.5999756
1540.689681	670.7999878
1541.204465	672.4000244
1541.719194	668.4000244
1542.233868	674.2000122
1542.748488	669.7999878
1543.263054	668.0
1543.777565	668.7999878
1544.292022	670.2000122
1544.806424	669.7999878
1545.320772	668.2000122
1545.835066	669.4000244
1546.349305	669.4000244
1546.863489	670.2000122
1547.37762	669.0
1547.891696	669.5999756
1548.405717	668.7999878
1548.919684	669.0
1549.433597	668.7999878
1549.947455	671.4000244
1550.461259	668.4000244
1550.975009	670.7999878
1551.488704	669.4000244
1552.002345	670.0
1552.515931	670.0
1553.029463	670.4000244
1553.542941	667.5999756
1554.056364	672.0
1554.569733	668.5999756
1555.083048	669.2000122
1555.596308	665.7999878
1556.109514	670.7999878
1556.622665	669.2000122
1557.135762	670.4000244
1557.648805	666.7999878
1558.161794	671.5999756
1558.674728	668.5999756
1559.187608	671.7999878
1559.700433	667.4000244
1560.213205	667.7999878
1560.725921	671.0
1561.238584	669.0
1561.751192	669.0
1562.263746	672.4000244
1562.776246	667.5999756
1563.288691	671.4000244
1563.801082	671.5999756
1564.313419	670.5999756
1564.825701	668.5999756
1565.337929	669.2000122
1565.850103	666.2000122
1566.362223	669.2000122
1566.874288	668.0
1567.386299	670.5999756
1567.898256	672.4000244
1568.410158	670.5999756
1568.922007	670.5999756
1569.4338	670.7999878
1569.94554	671.0
1570.457226	671.2000122
1570.968857	667.7999878
1571.480434	666.7999878
1571.991956	668.0
1572.503425	670.5999756
1573.014839	668.4000244
1573.526199	666.7999878
1574.037505	665.2000122
1574.548756	668.4000244
1575.059953	671.0
1575.571096	668.5999756
1576.082185	667.5999756
1576.59322	669.7999878
1577.1042	668.5999756
1577.615126	670.4000244
1578.125998	666.2000122
1578.636816	670.0
1579.14758	668.7999878
1579.658289	669.2000122
1580.168944	669.2000122
1580.679545	669.0
1581.190092	669.4000244
1581.700585	669.0
1582.211023	668.0
1582.721407	666.4000244
1583.231737	667.0
1583.742013	668.4000244
1584.252235	670.2000122
1584.762403	671.7999878
1585.272516	668.5999756
1585.782575	669.4000244
1586.292581	668.2000122
1586.802532	669.5999756
1587.312428	670.4000244
1587.822271	668.7999878
1588.33206	670.4000244
1588.841794	670.4000244
1589.351474	669.7999878
1589.8611	669.5999756
1590.370672	669.0
1590.88019	670.2000122
1591.389654	668.5999756
1591.899064	669.2000122
1592.408419	668.4000244
