 1.068511583E+03	 7.483180523E+00
 1.069075910E+03	 1.048525143E+01
 1.069640179E+03	 9.887286186E+00
 1.070204391E+03	 5.489394188E+00
 1.070768546E+03	 9.891428947E+00
 1.071332643E+03	 6.493536472E+00
 1.071896682E+03	 7.695619583E+00
 1.072460665E+03	 6.897642136E+00
 1.073024589E+03	 6.699762344E+00
 1.073588456E+03	 7.701833248E+00
 1.074152266E+03	 7.903855801E+00
 1.074716018E+03	 7.305951118E+00
 1.075279713E+03	 9.108010292E+00
 1.075843351E+03	 8.310093880E+00
 1.076406931E+03	 8.312165260E+00
 1.076970453E+03	 4.714260578E+00
 1.077533918E+03	 7.316307068E+00
 1.078097326E+03	 3.718402863E+00
 1.078660676E+03	 4.520462036E+00
 1.079223969E+03	 4.922496319E+00
 1.079787204E+03	 6.724616528E+00
 1.080350382E+03	 5.326663017E+00
 1.080913503E+03	 6.128722191E+00
 1.081476566E+03	 5.530817986E+00
 1.082039572E+03	 3.532888889E+00
 1.082602520E+03	 5.734972477E+00
 1.083165411E+03	 6.936994553E+00
 1.083728245E+03	 6.539102554E+00
 1.084291021E+03	 3.741185904E+00
 1.084853740E+03	 5.343232632E+00
 1.085416401E+03	 4.545316219E+00
 1.085979005E+03	 4.547387123E+00
 1.086541552E+03	 2.549458504E+00
 1.087104041E+03	 3.551529646E+00
 1.087666473E+03	 5.353588581E+00
 1.088228848E+03	 2.355659962E+00
 1.088791165E+03	 4.957706451E+00
 1.089353425E+03	 4.159790039E+00
 1.089915628E+03	 5.361873627E+00
 1.090477773E+03	 6.163932323E+00
 1.091039861E+03	 4.366015911E+00
 1.091601892E+03	 2.768111467E+00
 1.092163865E+03	 4.570170403E+00
 1.092725781E+03	 5.572241783E+00
 1.093287639E+03	 5.574312687E+00
 1.093849441E+03	 6.376371861E+00
 1.094411185E+03	 4.778467178E+00
 1.094972871E+03	 6.380514145E+00
 1.095534501E+03	 3.825853467E-01
 1.096096073E+03	 1.118464470E+01
 1.096657588E+03	 4.986703396E+00
 1.097219045E+03	 4.188786507E+00
 1.097780445E+03	 2.390870094E+00
 1.098341788E+03	 5.392941475E+00
 1.098903074E+03	 3.395012617E+00
 1.099464302E+03	 3.197071552E+00
 1.100025473E+03	 4.199142456E+00
 1.100586587E+03	 8.012505174E-01
 1.101147643E+03	 2.403297186E+00
 1.101708643E+03	 4.205356121E+00
 1.102269585E+03	 2.607451916E+00
 1.102830469E+03	 4.009486198E+00
 1.103391297E+03	 6.115942597E-01
 1.103952067E+03	 6.136654615E-01
 1.104512780E+03	 3.615736723E+00
 1.105073436E+03	 3.617807865E+00
 1.105634034E+03	 4.419867039E+00
 1.106194576E+03	 2.821962357E+00
 1.106755060E+03	 6.223997116E+00
 1.107315487E+03	 3.026056051E+00
 1.107875856E+03	 4.281515777E-01
 1.108436169E+03	 5.230210781E+00
 1.108996424E+03	 2.032269478E+00
 1.109556622E+03	 4.234353065E+00
 1.110116763E+03	 3.836460829E+00
 1.110676846E+03	 1.638519764E+00
 1.111236873E+03	 1.640590906E+00
 1.111796842E+03	 2.842674255E+00
 1.112356754E+03	 5.844745636E+00
 1.112916609E+03	 2.246780157E+00
 1.113476407E+03	 4.048839092E+00
 1.114036147E+03	 4.650947094E+00
 1.114595830E+03	 4.252993584E+00
 1.115155457E+03	 3.255064726E+00
 1.115715026E+03	 2.257136106E+00
 1.116274537E+03	-9.408049583E-01
 1.116833992E+03	 1.061266184E+00
 1.117393390E+03	 3.263349533E+00
 1.117952730E+03	 6.654452085E-01
 1.118512013E+03	 1.467504144E+00
 1.119071239E+03	 3.869599819E+00
 1.119630408E+03	 3.071622133E+00
 1.120189520E+03	 1.073693395E+00
 1.120748575E+03	 3.875813484E+00
 1.121307572E+03	 1.877884626E+00
 1.121866513E+03	 3.879955769E+00
 1.122425396E+03	 4.281990528E+00
 1.122984222E+03	 7.284061432E+00
 1.123542992E+03	 2.686157227E+00
 1.124101704E+03	 2.488216162E+00
 1.124660358E+03	 2.290275097E+00
 1.125218956E+03	 3.092334032E+00
 1.125777497E+03	 1.894454122E+00
 1.126335981E+03	 4.296488762E+00
 1.126894407E+03	 3.298559904E+00
 1.127452777E+03	 1.700655460E+00
 1.128011089E+03	 2.702726603E+00
 1.128569344E+03	 2.704797745E+00
 1.129127543E+03	 1.906881213E+00
 1.129685684E+03	 1.108903646E+00
 1.130243768E+03	 3.109869957E-01
 1.130801795E+03	 2.713082552E+00
 1.131359765E+03	 1.915166020E+00
 1.131917678E+03	 2.517212868E+00
 1.132475534E+03	 1.919308424E+00
 1.133033333E+03	 3.321342945E+00
 1.133591075E+03	-7.654922456E-02
 1.134148759E+03	 2.525497437E+00
 1.134706387E+03	 1.527568698E+00
 1.135263958E+03	 9.296643734E-01
 1.135821472E+03	 9.317355156E-01
 1.136378928E+03	 2.133757830E+00
 1.136936328E+03	-6.412207335E-02
 1.137493671E+03	 3.137900352E+00
 1.138050956E+03	 9.400203228E-01
 1.138608185E+03	 9.420915246E-01
 1.139165357E+03	-1.255849481E+00
 1.139722471E+03	-6.538027525E-01
 1.140279529E+03	 1.748292923E+00
 1.140836530E+03	 3.503396511E-01
 1.141393473E+03	 5.524230599E-01
 1.141950360E+03	 1.354482055E+00
 1.142507190E+03	 1.956589818E+00
 1.143063963E+03	 1.958661079E+00
 1.143620678E+03	 9.607322216E-01
 1.144177337E+03	 2.762791157E+00
 1.144733939E+03	 4.564850330E+00
 1.145290484E+03	 3.669091761E-01
 1.145846972E+03	 1.689681560E-01
 1.146403403E+03	 2.571063757E+00
 1.146959777E+03	 3.731227517E-01
 1.147516094E+03	 3.775218248E+00
 1.148072354E+03	 1.377265096E+00
 1.148628558E+03	 2.179324150E+00
 1.149184704E+03	 2.981444120E+00
 1.149740794E+03	 2.183466434E+00
 1.150296826E+03	-1.441348717E-02
 1.150852802E+03	-4.123667181E-01
 1.151408720E+03	 3.389692307E+00
 1.151964582E+03	 1.917512566E-01
 1.152520387E+03	 5.938468575E-01
 1.153076135E+03	 7.959302664E-01
 1.153631826E+03	-8.020351529E-01
 1.154187460E+03	 1.600060463E+00
 1.154743037E+03	 2.002156019E+00
 1.155298558E+03	 2.204178333E+00
 1.155854021E+03	 1.806286216E+00
 1.156409428E+03	 2.008369684E+00
 1.156964777E+03	 1.810428619E+00
 1.157520070E+03	 2.212463140E+00
 1.158075306E+03	 1.814571023E+00
 1.158630485E+03	-5.833822489E-01
 1.159185608E+03	 4.186889529E-01
 1.159740673E+03	-1.579239845E+00
 1.160295682E+03	-2.777180910E+00
 1.160850633E+03	 2.624914646E+00
 1.161405528E+03	 1.027010322E+00
 1.161960366E+03	-5.709550977E-01
 1.162515147E+03	 4.311161041E-01
 1.163069872E+03	 3.322391212E-02
 1.163624539E+03	 8.352829218E-01
 1.164179150E+03	 2.373174578E-01
 1.164733704E+03	 1.639413118E+00
 1.165288201E+03	 1.641484261E+00
 1.165842641E+03	-1.564323455E-01
 1.166397025E+03	-1.554385543E+00
 1.166951351E+03	-7.523266077E-01
 1.167505621E+03	 1.249744654E+00
 1.168059834E+03	 4.518280029E-01
 1.168613990E+03	 2.538869977E-01
 1.169168090E+03	 6.559826136E-01
 1.169722132E+03	-1.541958451E+00
 1.170276118E+03	-1.339874983E+00
 1.170830047E+03	 1.662196159E+00
 1.171383920E+03	 1.464255214E+00
 1.171937735E+03	-9.336370230E-01
 1.172491494E+03	-1.315780431E-01
 1.173045196E+03	 4.704687297E-01
 1.173598841E+03	-2.727472305E+00
 1.174152430E+03	 1.474611163E+00
 1.174705962E+03	-7.233299017E-01
 1.175259437E+03	 8.787779212E-01
 1.175812855E+03	-3.191631138E-01
 1.176366216E+03	 2.828836739E-01
 1.176919521E+03	 2.849548757E-01
 1.177472769E+03	-1.129373237E-01
 1.178025960E+03	 8.914607018E-02
 1.178579095E+03	-1.508819342E+00
 1.179132173E+03	-2.306735992E+00
 1.179685194E+03	 6.953352094E-01
 1.180238158E+03	-1.025813669E-01
 1.180791066E+03	-5.005345941E-01
 1.181343917E+03	 1.015732214E-01
 1.181896711E+03	-2.696404457E+00
 1.182449449E+03	-1.094296575E+00
 1.183002130E+03	-2.292237520E+00
 1.183554754E+03	-2.890141964E+00
 1.184107322E+03	 5.118925571E-01
 1.184659833E+03	 9.139881730E-01
 1.185212287E+03	-6.839772463E-01
 1.185764684E+03	 1.181427538E-01
 1.186317025E+03	 2.520177364E+00
 1.186869309E+03	 2.122285128E+00
 1.187421537E+03	-1.275668144E+00
 1.187973707E+03	-2.735969126E-01
 1.188525822E+03	 1.928486466E+00
 1.189077879E+03	 2.330521107E+00
 1.189629880E+03	-2.673833370E-01
 1.190181824E+03	-1.065299869E+00
 1.190733712E+03	-3.063228846E+00
 1.191285543E+03	-1.261169791E+00
 1.191837317E+03	 7.409014106E-01
 1.192389035E+03	-2.057015181E+00
 1.192940696E+03	 5.450316072E-01
 1.193492300E+03	-1.052872777E+00
 1.194043848E+03	-1.850789428E+00
 1.194595339E+03	-8.487181664E-01
 1.195146774E+03	 7.533285618E-01
 1.195698152E+03	 5.553875566E-01
 1.196249473E+03	 2.157495499E+00
 1.196800738E+03	-4.404700398E-01
 1.197351946E+03	 1.761613369E+00
 1.197903098E+03	-1.636339903E+00
 1.198454193E+03	-1.634268641E+00
 1.199005231E+03	-4.321852922E-01
 1.199556213E+03	-3.008967638E-02
 1.200107138E+03	 1.971981525E+00
 1.200658007E+03	 1.574028254E+00
 1.201208819E+03	-1.823863864E+00
 1.201759574E+03	-2.180491202E-02
 1.202310273E+03	-4.197581410E-01
 1.202860916E+03	-2.217674732E+00
 1.203411501E+03	-6.156279445E-01
 1.203962031E+03	 1.864920557E-01
 1.204512503E+03	 7.885388136E-01
 1.205062920E+03	 1.190634489E+00
 1.205613279E+03	 1.592669010E+00
 1.206163582E+03	 3.947280049E-01
 1.206713829E+03	-2.031763941E-01
 1.207264019E+03	 1.989192069E-01
 1.207814153E+03	 4.009415805E-01
 1.208364230E+03	-9.969506264E-01
 1.208914250E+03	-1.594916105E+00
 1.209464214E+03	-2.192820549E+00
 1.210014122E+03	 4.092263281E-01
 1.210563973E+03	 2.113463581E-01
 1.211113767E+03	-3.866190612E-01
 1.211663505E+03	-5.845600963E-01
 1.212213186E+03	 2.175599337E-01
 1.212762811E+03	-3.180393219E+00
 1.213312380E+03	-7.782976627E-01
 1.213861892E+03	 2.237735093E-01
 1.214411347E+03	 1.625808120E+00
 1.214960746E+03	-1.721085310E-01
 1.215510089E+03	-1.370049596E+00
 1.216059375E+03	 2.432009459E+00
 1.216608605E+03	-2.165894985E+00
 1.217157778E+03	-1.763799310E+00
 1.217706895E+03	 3.038259745E+00
 1.218255955E+03	-2.959669113E+00
 1.218804959E+03	 1.304240227E+01
 1.219353906E+03	-1.955526829E+00
 1.219902797E+03	 2.446507692E+00
 1.220451631E+03	-1.513966173E-01
 1.221000409E+03	 4.506501555E-01
 1.221549131E+03	 4.527213573E-01
 1.222097796E+03	 6.548047662E-01
 1.222646405E+03	-9.430996180E-01
 1.223194957E+03	-7.410162687E-01
 1.223743453E+03	-1.389694661E-01
 1.224291893E+03	 4.630773067E-01
 1.224840276E+03	 8.651729226E-01
 1.225388603E+03	-5.327802896E-01
 1.225936873E+03	 1.269339681E+00
 1.226485087E+03	-1.728589058E+00
 1.227033244E+03	-3.265545368E-01
 1.227581345E+03	-7.244467139E-01
 1.228129390E+03	 7.761226594E-02
 1.228677378E+03	 4.796468318E-01
 1.229225310E+03	 1.681730270E+00
 1.229773186E+03	 6.838014126E-01
 1.230321005E+03	 1.285909295E+00
 1.230868768E+03	 2.087968111E+00
 1.231416474E+03	 9.003941715E-02
 1.231964124E+03	-2.307913780E+00
 1.232511718E+03	-1.058304086E-01
 1.233059256E+03	-1.503783584E+00
 1.233606737E+03	 2.298336267E+00
 1.234154161E+03	-1.699592471E+00
 1.234701530E+03	-2.697521210E+00
 1.235248842E+03	-2.954866588E-01
 1.235796097E+03	 1.706584573E+00
 1.236343297E+03	 5.086435080E-01
 1.236890440E+03	-2.892730832E-01
 1.237437526E+03	 2.112822533E+00
 1.237984557E+03	 1.714869261E+00
 1.238531531E+03	-1.083047271E+00
 1.239078448E+03	 4.719011784E+00
 1.239625310E+03	-4.789293408E-01
 1.240172115E+03	 7.231540680E-01
 1.240718864E+03	 1.252496690E-01
 1.241265556E+03	-1.072691321E+00
 1.241812192E+03	-7.062015682E-02
 1.242358772E+03	 3.331475496E+00
 1.242905296E+03	-1.266489983E+00
 1.243451763E+03	 1.356056184E-01
 1.243998174E+03	 1.537640214E+00
 1.244544529E+03	 5.397113562E-01
 1.245090828E+03	 1.341831446E+00
 1.245637070E+03	 7.438659668E-01
 1.246183256E+03	 9.459493756E-01
 1.246729386E+03	-8.519672155E-01
 1.247275459E+03	 1.501039565E-01
 1.247821476E+03	-4.478614628E-01
 1.248367437E+03	 5.542097092E-01
 1.248913342E+03	-2.437068820E-01
 1.249459190E+03	-2.416356951E-01
 1.250004983E+03	 5.604233146E-01
 1.250550719E+03	 3.625433147E-01
 1.251096398E+03	 1.164602280E+00
 1.251642022E+03	 1.566636920E+00
 1.252187589E+03	-1.231279731E+00
 1.252733100E+03	 5.707792640E-01
 1.253278555E+03	-8.271129131E-01
 1.253823954E+03	-2.425078392E+00
 1.254369296E+03	-6.229583621E-01
 1.254914582E+03	-8.208993673E-01
 1.255459812E+03	 2.181171894E+00
 1.256004986E+03	 2.183243036E+00
 1.256550104E+03	 5.852776170E-01
 1.257095165E+03	 2.587348700E+00
 1.257640170E+03	 1.894565970E-01
 1.258185119E+03	 2.791503429E+00
 1.258730012E+03	 1.193598986E+00
 1.259274849E+03	 1.795645714E+00
 1.259819629E+03	-4.022952616E-01
 1.260364354E+03	 1.199812531E+00
 1.260909022E+03	 6.018471122E-01
 1.261453634E+03	 1.003942728E+00
 1.261998190E+03	 2.060261220E-01
 1.262542689E+03	 1.408109546E+00
 1.263087133E+03	 2.010156393E+00
 1.263631520E+03	 4.812215328E+00
 1.264175852E+03	 5.214311123E+00
 1.264720127E+03	 1.001636982E+01
 1.265264346E+03	 1.961841583E+01
 1.265808508E+03	 1.942053604E+01
 1.266352615E+03	 9.822570801E+00
 1.266896666E+03	 1.224666834E+00
 1.267440660E+03	 2.226737976E+00
 1.267984598E+03	 2.628772497E+00
 1.268528481E+03	 1.430892587E+00
 1.269072307E+03	 1.432963848E+00
 1.269616077E+03	 6.349861622E-01
 1.270159790E+03	 1.837069631E+00
 1.270703448E+03	 2.639128447E+00
 1.271247050E+03	 2.241236448E+00
 1.271790595E+03	 6.432709694E-01
 1.272334085E+03	-3.546578586E-01
 1.272877518E+03	 2.474499494E-01
 1.273420895E+03	-1.550466657E+00
 1.273964217E+03	 8.515679240E-01
 1.274507482E+03	 2.536635101E-01
 1.275050691E+03	 2.655698061E+00
 1.275593844E+03	 4.578181207E-01
 1.276136941E+03	-9.401351213E-01
 1.276679982E+03	 1.461960435E+00
 1.277222966E+03	-1.136004925E+00
 1.277765895E+03	 1.266090631E+00
 1.278308768E+03	 4.668125153E+00
 1.278851584E+03	 1.070220828E+00
 1.279394345E+03	 6.722676158E-01
 1.279937050E+03	 6.743388176E-01
 1.280479698E+03	-9.235655665E-01
 1.281022290E+03	 4.785300195E-01
 1.281564827E+03	 2.280589104E+00
 1.282107307E+03	 3.282660246E+00
 1.282649732E+03	 4.684694767E+00
 1.283192100E+03	 4.286802769E+00
 1.283734412E+03	 9.088861465E+00
 1.284276669E+03	 1.429094505E+01
 1.284818869E+03	 4.629301453E+01
 1.285361013E+03	 1.856950531E+02
 1.285903102E+03	 2.934971619E+02
 1.286445134E+03	 9.389920807E+01
 1.286987110E+03	 2.150131226E+01
 1.287529031E+03	 9.703335762E+00
 1.288070895E+03	 7.305443287E+00
 1.288612703E+03	 4.107502460E+00
 1.289154456E+03	 5.109573364E+00
 1.289696152E+03	 1.711620212E+00
 1.290237792E+03	 3.113715887E+00
 1.290779377E+03	 1.515811443E+00
 1.291320905E+03	 3.178704381E-01
 1.291862378E+03	 1.519953847E+00
 1.292403794E+03	 9.219884276E-01
 1.292945155E+03	 1.324084044E+00
 1.293486460E+03	 4.526167393E+00
 1.294027708E+03	-2.718102038E-01
 1.294568901E+03	 1.730260968E+00
 1.295110038E+03	-2.676678300E-01
 1.295651119E+03	 1.534452200E+00
 1.296192144E+03	-8.635010123E-01
 1.296733113E+03	-1.261454225E+00
 1.297274026E+03	-2.059370756E+00
 1.297814883E+03	-4.572630525E-01
 1.298355684E+03	-5.522847921E-02
 1.298896429E+03	 3.468671143E-01
 1.299437119E+03	 2.348938227E+00
 1.299977752E+03	-4.489782751E-01
 1.300518330E+03	 1.353080750E+00
 1.301058851E+03	 2.755115271E+00
 1.301599317E+03	-1.442764759E+00
 1.302139727E+03	-8.407179117E-01
 1.302680081E+03	-6.386345625E-01
 1.303220379E+03	 7.634000182E-01
 1.303760621E+03	 9.654834270E-01
 1.304300807E+03	-4.324087501E-01
 1.304840938E+03	-6.303497553E-01
 1.305381012E+03	 5.717336535E-01
 1.305921031E+03	 3.737926185E-01
 1.306460994E+03	 1.758515984E-01
 1.307000901E+03	 2.377934933E+00
 1.307540752E+03	 1.179993987E+00
 1.308080547E+03	-3.217959166E+00
 1.308620287E+03	 1.384148598E+00
 1.309159970E+03	-3.213816881E+00
 1.309699598E+03	-1.173346490E-02
 1.310239170E+03	-2.096744776E-01
 1.310778685E+03	-8.075788617E-01
 1.311318146E+03	 2.594516754E+00
 1.311857550E+03	-3.448699834E-03
 1.312396898E+03	-2.201389790E+00
 1.312936191E+03	-1.993185282E-01
 1.313475428E+03	-5.972107053E-01
 1.314014609E+03	-9.951639175E-01
 1.314553734E+03	 4.069316685E-01
 1.315092803E+03	 4.090028703E-01
 1.315631817E+03	 1.104963850E-02
 1.316170775E+03	-5.868547559E-01
 1.316709677E+03	 4.152164459E-01
 1.317248523E+03	 2.417287588E+00
 1.317787313E+03	 1.933440380E-02
 1.318326048E+03	 1.221417785E+00
 1.318864727E+03	 1.823464632E+00
 1.319403350E+03	-1.174464226E+00
 1.319941917E+03	 1.427643538E+00
 1.320480428E+03	 3.629726887E+00
 1.321018884E+03	 3.176154941E-02
 1.321557284E+03	 8.338205218E-01
 1.322095628E+03	 8.358917236E-01
 1.322633916E+03	 1.237987280E+00
 1.323172149E+03	-9.599536657E-01
 1.323710326E+03	 1.242129683E+00
 1.324248447E+03	 2.244200945E+00
 1.324786512E+03	-7.537279129E-01
 1.325324522E+03	-5.516445041E-01
 1.325862476E+03	 4.504266977E-01
 1.326400374E+03	 4.524978697E-01
 1.326938216E+03	 6.545812488E-01
 1.327476003E+03	 2.256628036E+00
 1.328013734E+03	 8.586748242E-01
 1.328551409E+03	-5.392173529E-01
 1.329089028E+03	 3.262841702E+00
 1.329626592E+03	 2.649128139E-01
 1.330164100E+03	 1.667008400E+00
 1.330701552E+03	 4.690673947E-01
 1.331238949E+03	-1.128898025E+00
 1.331776290E+03	-5.267902017E-01
 1.332313575E+03	 1.275268793E+00
 1.332850805E+03	 4.773521721E-01
 1.333387978E+03	 2.079398870E+00
 1.333925096E+03	-7.185176611E-01
 1.334462159E+03	 2.083541393E+00
 1.334999166E+03	 2.856247425E-01
 1.335536117E+03	 2.287695885E+00
 1.336073012E+03	 3.089754820E+00
 1.336609852E+03	 8.918138742E-01
 1.337146636E+03	 4.939216971E-01
 1.337683364E+03	 1.295980692E+00
 1.338220037E+03	 1.498064041E+00
 1.338756654E+03	 3.500135183E+00
 1.339293215E+03	 2.102182150E+00
 1.339829721E+03	 7.042898536E-01
 1.340366171E+03	-1.293638945E+00
 1.340902565E+03	 2.108395576E+00
 1.341438904E+03	 7.105034590E-01
 1.341975187E+03	 3.125502169E-01
 1.342511415E+03	-4.853663743E-01
 1.343047587E+03	 1.516704798E+00
 1.343583703E+03	-1.881248474E+00
 1.344119764E+03	 3.520847082E+00
 1.344655769E+03	 1.722930551E+00
 1.345191718E+03	 3.324977398E+00
 1.345727612E+03	 1.527060747E+00
 1.346263450E+03	 1.929095387E+00
 1.346799232E+03	-1.068833470E+00
 1.347334959E+03	 1.333262086E+00
 1.347870631E+03	-6.646666527E-01
 1.348406246E+03	-4.625832736E-01
 1.348941806E+03	 4.939451218E+00
 1.349477311E+03	 9.415224791E-01
 1.350012760E+03	 7.436425090E-01
 1.350548153E+03	 9.456648827E-01
 1.351083491E+03	-5.226394907E-02
 1.351618773E+03	 1.149819493E+00
 1.352154000E+03	 1.751927257E+00
 1.352689171E+03	-2.846038103E+00
 1.353224286E+03	 3.560452163E-01
 1.353759346E+03	-1.841895819E+00
 1.354294351E+03	-1.639812350E+00
 1.354829299E+03	 1.362258792E+00
 1.355364193E+03	 1.164317846E+00
 1.355899030E+03	-8.336110115E-01
 1.356433813E+03	-2.431515455E+00
 1.356968539E+03	 5.705558062E-01
 1.357503210E+03	-1.227360845E+00
 1.358037826E+03	 3.746859431E-01
 1.358572386E+03	 5.767693520E-01
 1.359106890E+03	 5.788405538E-01
 1.359641339E+03	 2.580911636E+00
 1.360175732E+03	 3.829707205E-01
 1.360710070E+03	-8.149703145E-01
 1.361244353E+03	 9.870886803E-01
 1.361778580E+03	-1.410803556E+00
 1.362312751E+03	-8.087567091E-01
 1.362846867E+03	 1.193314433E+00
 1.363380927E+03	 1.395397902E+00
 1.363914932E+03	 3.974690437E-01
 1.364448881E+03	 3.995402455E-01
 1.364982775E+03	 2.001586914E+00
 1.365516613E+03	 1.403682590E+00
 1.366050396E+03	 2.605766058E+00
 1.366584124E+03	 2.607837200E+00
 1.367117795E+03	 2.609908342E+00
 1.367651412E+03	 1.611979604E+00
 1.368184973E+03	 2.414038658E+00
 1.368718478E+03	 6.161220074E-01
 1.369251928E+03	 4.018156528E+00
 1.369785323E+03	 6.202643514E-01
 1.370318662E+03	 6.222311020E+00
 1.370851945E+03	 6.024370193E+00
 1.371385174E+03	 2.426465750E+00
 1.371918346E+03	 1.628549099E+00
 1.372451464E+03	-1.969416261E+00
 1.372984525E+03	 2.232667208E+00
 1.373517532E+03	-9.652739167E-01
 1.374050483E+03	 1.036797285E+00
 1.374583378E+03	 3.886846453E-02
 1.375116218E+03	 1.240951896E+00
 1.375649003E+03	-1.156940341E+00
 1.376181732E+03	 2.445106506E+00
 1.376714406E+03	 3.647189856E+00
 1.377247024E+03	 1.049224377E+00
 1.377779587E+03	 1.451320052E+00
 1.378312095E+03	 2.053366899E+00
 1.378844547E+03	 8.554868102E-01
 1.379376944E+03	-5.424664021E-01
 1.379909285E+03	-3.403829932E-01
 1.380441571E+03	 8.617004156E-01
 1.380973802E+03	 1.463747144E+00
 1.381505977E+03	 4.658183753E-01
 1.382038097E+03	 6.679017544E-01
 1.382570161E+03	-1.130014896E+00
 1.383102170E+03	 2.872056246E+00
 1.383634124E+03	-1.125872493E+00
 1.384166022E+03	 4.676186562E+00
 1.384697865E+03	 2.678257704E+00
 1.385229653E+03	 3.280304432E+00
 1.385761385E+03	 2.882412195E+00
 1.386293062E+03	 5.684471130E+00
 1.386824683E+03	 9.686542511E+00
 1.387356249E+03	 1.608857727E+01
 1.387887760E+03	 3.509064865E+01
 1.388419216E+03	 1.690927124E+02
 1.388950616E+03	 5.086947632E+02
 1.389481960E+03	 2.136968994E+02
 1.390013250E+03	 3.309893417E+01
 1.390544484E+03	 1.430101681E+01
 1.391075663E+03	 4.103075504E+00
 1.391606786E+03	 4.105146408E+00
 1.392137854E+03	 4.507242203E+00
 1.392668867E+03	 4.309301376E+00
 1.393199824E+03	 2.511384487E+00
 1.393730726E+03	 1.913480163E+00
 1.394261573E+03	 3.155147433E-01
 1.394792365E+03	 3.117573738E+00
 1.395323101E+03	 9.196937680E-01
 1.395853782E+03	 5.217405558E-01
 1.396384408E+03	 1.237873062E-01
 1.396914978E+03	 1.125858545E+00
 1.397445493E+03	 1.927978516E+00
 1.397975953E+03	 2.130000830E+00
 1.398506357E+03	 1.532096505E+00
 1.399036706E+03	 9.341920614E-01
 1.399567000E+03	 1.936263323E+00
 1.400097239E+03	-2.061665535E+00
 1.400627422E+03	 1.403568387E-01
 1.401157550E+03	-2.057523251E+00
 1.401687623E+03	-1.055451989E+00
 1.402217641E+03	 7.466070056E-01
 1.402747603E+03	 7.486782074E-01
 1.403277510E+03	 9.507616162E-01
 1.403807362E+03	 3.527961969E-01
 1.404337159E+03	 2.154855251E+00
 1.404866900E+03	 7.569630146E-01
 1.405396586E+03	 3.590097725E-01
 1.405926217E+03	 4.361081123E+00
 1.406455792E+03	 1.631399393E-01
 1.406985313E+03	 3.565235615E+00
 1.407514778E+03	 1.367294550E+00
 1.408044188E+03	 3.969402313E+00
 1.408573543E+03	 3.714369237E-01
 1.409102842E+03	 5.573520184E+00
 1.409632086E+03	 1.977560425E+01
 1.410161276E+03	 3.877767563E+01
 1.410690409E+03	 3.317971039E+01
 1.411219488E+03	 7.181780815E+00
 1.411748512E+03	 3.383864164E+00
 1.412277480E+03	 2.385935307E+00
 1.412806393E+03	 1.588018656E+00
 1.413335251E+03	 1.990114212E+00
 1.413864053E+03	-6.078511477E-01
 1.414392801E+03	-2.605779886E+00
 1.414921493E+03	-8.037210107E-01
 1.415450130E+03	-1.801649809E+00
 1.415978712E+03	 3.600445747E+00
 1.416507239E+03	 2.202492476E+00
 1.417035711E+03	 1.004612565E+00
 1.417564127E+03	 8.066715598E-01
 1.418092489E+03	 4.087183475E-01
 1.418620795E+03	 2.410789490E+00
 1.419149046E+03	-5.871392488E-01
 1.419677242E+03	-7.850802541E-01
 1.420205382E+03	 1.817027569E+00
 1.420733468E+03	-1.180901289E+00
 1.421261498E+03	 8.211699128E-01
 1.421789474E+03	 3.223204374E+00
 1.422317394E+03	 6.253001094E-01
 1.422845259E+03	 1.627371311E+00
 1.423373069E+03	 1.229418039E+00
 1.423900823E+03	-1.368486285E+00
 1.424428523E+03	-7.664395571E-01
 1.424956168E+03	 1.635655999E+00
 1.425483757E+03	 1.437715054E+00
 1.426011291E+03	 4.397862256E-01
 1.426538771E+03	 1.841881871E+00
 1.427066195E+03	 2.643940926E+00
 1.427593564E+03	-5.540001988E-01
 1.428120878E+03	 8.480954170E-01
 1.428648136E+03	-3.498456180E-01
 1.429175340E+03	-7.477988601E-01
 1.429702489E+03	 1.654296756E+00
 1.430229582E+03	 1.056392312E+00
 1.430756621E+03	 1.858451366E+00
 1.431283604E+03	 6.053475291E-02
 1.431810532E+03	 2.625571191E-01
 1.432337405E+03	 4.646405280E-01
 1.432864224E+03	 1.266699553E+00
 1.433390987E+03	-3.312048912E-01
 1.433917695E+03	-7.291581035E-01
 1.434444348E+03	 1.672937512E+00
 1.434970945E+03	 1.875020862E+00
 1.435497488E+03	 2.477067709E+00
 1.436023976E+03	 1.479138851E+00
 1.436550409E+03	 1.481209993E+00
 1.437076787E+03	 1.483281255E+00
 1.437603109E+03	 1.285340190E+00
 1.438129377E+03	 2.874114215E-01
 1.438655590E+03	-1.104807779E-01
 1.439181747E+03	 3.491565943E+00
 1.439707850E+03	-9.063261747E-01
 1.440233897E+03	 7.295696259E+00
 1.440759890E+03	-3.022082150E-01
 1.441285827E+03	-2.100124836E+00
 1.441811710E+03	 1.019585803E-01
 1.442337537E+03	-1.095982432E+00
 1.442863309E+03	 1.061009616E-01
 1.443389027E+03	-9.184005857E-02
 1.443914689E+03	-1.289781094E+00
 1.444440297E+03	-1.487722039E+00
 1.444965849E+03	-4.856508970E-01
 1.445491347E+03	-1.483579755E+00
 1.446016789E+03	 5.184915066E-01
 1.446542177E+03	 2.320550442E+00
 1.447067509E+03	-2.773539126E-01
 1.447592787E+03	 7.247172594E-01
 1.448118009E+03	-2.273211479E+00
 1.448643177E+03	 1.328835249E+00
 1.449168290E+03	-1.269069195E+00
 1.449693347E+03	 5.329898000E-01
 1.450218350E+03	-6.649512053E-01
 1.450743298E+03	-2.062843323E+00
 1.451268190E+03	 1.392400265E-01
 1.451793028E+03	 1.413112134E-01
 1.452317811E+03	-8.566175699E-01
 1.452842539E+03	-1.654595256E+00
 1.453367212E+03	-1.852475166E+00
 1.453891830E+03	 3.495471478E-01
 1.454416393E+03	 9.516549706E-01
 1.454940901E+03	 1.537383646E-01
 1.455465355E+03	-1.644239306E+00
 1.455989753E+03	-4.421558678E-01
 1.456514096E+03	 2.759927511E+00
 1.457038385E+03	-6.380257010E-01
 1.457562619E+03	-3.591789305E-02
 1.458086797E+03	 7.661411166E-01
 1.458610921E+03	 2.168236732E+00
 1.459134990E+03	 3.702590466E-01
 1.459659004E+03	 1.772354722E+00
 1.460182963E+03	-1.425586343E+00
 1.460706867E+03	-6.235273480E-01
 1.461230716E+03	-2.141955309E-02
 1.461754511E+03	-6.193850040E-01
 1.462278250E+03	 2.582698345E+00
 1.462801935E+03	 7.984794140E+00
 1.463325564E+03	 1.838682938E+01
 1.463849139E+03	-2.110757977E-01
 1.464372659E+03	-2.008992434E+00
 1.464896124E+03	 1.393042207E+00
 1.465419535E+03	 7.951377630E-01
 1.465942890E+03	-4.028032422E-01
 1.466466190E+03	 3.992557228E-01
 1.466989436E+03	 1.601339102E+00
 1.467512627E+03	-7.965530753E-01
 1.468035763E+03	 6.054815054E-01
 1.468558844E+03	 4.075405002E-01
 1.469081870E+03	-2.390376091E+00
 1.469604842E+03	-9.882804751E-01
 1.470127758E+03	-7.861971259E-01
 1.470650620E+03	-9.841381311E-01
 1.471173427E+03	-1.182079077E+00
 1.471696179E+03	 1.419967651E+00
 1.472218876E+03	 4.220388532E-01
 1.472741519E+03	-9.758533239E-01
 1.473264106E+03	-1.973782182E+00
 1.473786639E+03	-2.171723127E+00
 1.474309117E+03	 6.303358078E-01
 1.474831540E+03	-5.676051974E-01
 1.475353909E+03	-2.165509701E+00
 1.475876222E+03	 1.636549354E+00
 1.476398481E+03	-7.613428235E-01
 1.476920685E+03	-1.359308243E+00
 1.477442834E+03	-5.572492480E-01
 1.477964928E+03	 1.044858575E+00
 1.478486968E+03	-9.530702233E-01
 1.479008953E+03	 1.249013186E+00
 1.479530883E+03	-5.489645004E-01
 1.480052758E+03	-7.468444705E-01
 1.480574579E+03	-5.448220968E-01
 1.481096344E+03	-3.427386880E-01
 1.481618055E+03	 2.593691051E-01
 1.482139712E+03	 1.661403656E+00
 1.482661313E+03	-2.136512995E+00
 1.483182860E+03	-1.134441733E+00
 1.483704352E+03	-9.323583245E-01
 1.484225789E+03	-1.730274916E+00
 1.484747171E+03	-1.728203773E+00
 1.485268499E+03	-1.526181340E+00
 1.485789772E+03	 2.275938749E+00
 1.486310990E+03	-9.220023751E-01
 1.486832154E+03	-3.119943380E+00
 1.487353262E+03	-2.517896652E+00
 1.487874316E+03	-7.157766223E-01
 1.488395316E+03	 2.862946093E-01
 1.488916260E+03	-5.116830468E-01
 1.489437150E+03	-1.509611845E+00
 1.489957985E+03	 1.492459297E+00
 1.490478766E+03	-1.105445027E+00
 1.490999491E+03	 9.663834423E-02
 1.491520162E+03	-2.901290417E+00
 1.492040779E+03	-4.992558956E-01
 1.492561340E+03	-8.971480727E-01
 1.493081847E+03	 3.049353063E-01
 1.493602300E+03	 1.069943011E-01
 1.494122697E+03	-1.690922260E+00
 1.494643040E+03	 9.111244678E-01
 1.495163328E+03	-1.686779976E+00
 1.495683562E+03	-1.084733129E+00
 1.496203740E+03	-4.826863706E-01
 1.496723865E+03	 3.194336593E-01
 1.497243934E+03	-6.784951687E-01
 1.497763949E+03	-1.476472735E+00
 1.498283909E+03	-2.743893862E-01
 1.498803815E+03	-7.230599225E-02
 1.499323665E+03	 7.297530174E-01
 1.499843462E+03	-1.668139219E+00
 1.500363203E+03	-6.609241664E-02
 1.500882890E+03	-1.264033437E+00
 1.501402522E+03	-8.619378209E-01
 1.501922100E+03	 1.140133381E+00
 1.502441623E+03	 1.142204523E+00
 1.502961091E+03	-1.855724216E+00
 1.503480505E+03	-2.453689575E+00
 1.503999864E+03	-2.051594019E+00
 1.504519168E+03	-8.495106697E-01
 1.505038418E+03	 1.525605023E-01
 1.505557614E+03	-3.445405006E+00
 1.506076754E+03	 1.156702876E+00
 1.506595840E+03	 7.587496638E-01
 1.507114872E+03	 5.608086586E-01
 1.507633848E+03	-1.837083578E+00
 1.508152770E+03	-1.035024524E+00
 1.508671638E+03	 3.670710623E-01
 1.509190451E+03	-3.088216856E-02
 1.509709209E+03	 5.711646080E-01
 1.510227913E+03	-1.826727629E+00
 1.510746563E+03	-2.246807963E-01
 1.511265157E+03	-1.022597432E+00
 1.511783697E+03	-1.020526171E+00
 1.512302183E+03	-1.418479443E+00
 1.512820614E+03	-4.164082408E-01
 1.513338990E+03	 5.856629610E-01
 1.513857312E+03	-1.612217069E+00
 1.514375579E+03	-4.101946652E-01
 1.514893792E+03	-2.008099079E+00
 1.515411950E+03	-2.806015730E+00
 1.515930053E+03	-1.203968883E+00
 1.516448102E+03	-1.401909947E+00
 1.516966097E+03	-1.599789858E+00
 1.517484037E+03	-1.997743130E+00
 1.518001922E+03	 2.043402940E-01
 1.518519753E+03	 1.406423688E+00
 1.519037529E+03	-3.915539384E-01
 1.519555251E+03	 2.105538696E-01
 1.520072918E+03	 4.126372635E-01
 1.520590531E+03	-1.385340333E+00
 1.521108089E+03	 2.167674303E-01
 1.521625593E+03	-7.811613679E-01
 1.522143042E+03	 1.420922041E+00
 1.522660437E+03	-1.577006817E+00
 1.523177777E+03	-5.749356151E-01
 1.523695063E+03	-5.728644133E-01
 1.524212294E+03	 4.429206848E+00
 1.524729471E+03	 6.312291622E-01
 1.525246593E+03	 1.633300304E+00
 1.525763661E+03	 4.235408306E+00
 1.526280674E+03	 1.203746700E+01
 1.526797633E+03	 4.039538383E+00
 1.527314537E+03	-1.158402681E+00
 1.527831387E+03	 8.436685205E-01
 1.528348182E+03	-3.154260397E+00
 1.528864923E+03	 2.847810984E+00
 1.529381609E+03	-2.350130081E+00
 1.529898241E+03	 8.519532681E-01
 1.530414818E+03	 1.054036617E+00
 1.530931341E+03	 4.561322629E-01
 1.531447810E+03	-3.418453634E-01
 1.531964224E+03	-3.339774132E+00
 1.532480584E+03	-9.376785755E-01
 1.532996889E+03	-1.935607314E+00
 1.533513140E+03	 6.646382064E-02
 1.534029336E+03	 6.685106158E-01
 1.534545478E+03	-1.529369354E+00
 1.535061565E+03	 1.007267761E+01
 1.535577598E+03	 4.747729897E-01
 1.536093577E+03	-2.123192549E+00
 1.536609501E+03	 1.678866506E+00
 1.537125371E+03	 8.096215874E-02
 1.537641186E+03	 2.830455601E-01
 1.538156947E+03	-1.514871001E+00
 1.538672653E+03	 6.871513128E-01
 1.539188305E+03	 1.089246869E+00
 1.539703903E+03	 2.913303077E-01
 1.540219447E+03	-3.906610727E+00
 1.540734935E+03	-1.504515052E+00
 1.541250370E+03	-5.024439096E-01
 1.541765750E+03	 1.499627233E+00
 1.542281076E+03	 5.016984940E-01
 1.542796347E+03	 7.037208676E-01
 1.543311564E+03	 5.058408380E-01
 1.543826727E+03	 7.078632116E-01
 1.544341835E+03	 7.099344134E-01
 1.544856889E+03	 1.120300218E-01
 1.545371888E+03	 3.141134083E-01
 1.545886834E+03	 1.516196847E+00
 1.546401724E+03	-2.281780720E+00
 1.546916561E+03	 3.203269839E-01
 1.547431343E+03	 3.223981857E-01
 1.547946071E+03	 1.244571730E-01
 1.548460744E+03	-1.673459411E+00
 1.548975363E+03	 3.286117613E-01
 1.549489928E+03	 5.306951404E-01
 1.550004438E+03	-4.672336578E-01
 1.550518894E+03	 2.934800863E+00
 1.551033296E+03	 1.936872125E+00
 1.551547643E+03	 2.138955593E+00
 1.552061936E+03	-2.589977086E-01
 1.552576175E+03	 5.431222916E-01
 1.553090359E+03	 2.745144606E+00
 1.553604489E+03	-5.277192965E-02
 1.554118565E+03	 3.493236601E-01
 1.554632587E+03	 1.351394892E+00
 1.555146554E+03	 1.153453827E+00
 1.555660467E+03	 1.555549502E+00
 1.556174325E+03	-4.423793554E-01
 1.556688130E+03	-8.403325677E-01
 1.557201880E+03	-1.438236952E+00
 1.557715575E+03	 7.637853622E-01
 1.558229217E+03	 1.765856624E+00
 1.558742804E+03	-3.206001967E-02
 1.559256337E+03	-8.299766183E-01
 1.559769816E+03	-1.227929831E+00
 1.560283240E+03	-1.025846481E+00
 1.560796610E+03	 1.762369573E-01
 1.561309926E+03	 1.778283715E+00
 1.561823187E+03	-3.219645023E+00
 1.562336395E+03	 1.182450533E+00
 1.562849548E+03	 1.784497261E+00
 1.563362647E+03	-2.013419390E+00
 1.563875691E+03	-6.113237143E-01
 1.564388681E+03	 1.790710926E+00
 1.564901617E+03	 1.192806482E+00
 1.565414499E+03	-5.134533625E-03
 1.565927327E+03	 1.196948886E+00
 1.566440100E+03	 1.199020028E+00
 1.566952819E+03	 3.401103497E+00
 1.567465484E+03	 8.031380177E-01
 1.567978095E+03	 1.605257988E+00
 1.568490651E+03	 4.073170424E-01
 1.569003154E+03	 2.609400511E+00
 1.569515602E+03	 8.114227653E-01
 1.570027996E+03	 2.613542795E+00
 1.570540335E+03	 2.015577316E+00
 1.571052621E+03	 1.764857024E-02
 1.571564852E+03	-7.802680135E-01
 1.572077029E+03	-1.782212555E-01
 1.572589152E+03	-7.761256695E-01
 1.573101221E+03	 4.259577394E-01
 1.573613235E+03	-3.719588518E-01
 1.574125195E+03	 2.430100203E+00
 1.574637102E+03	-3.678164780E-01
 1.575148954E+03	 2.342303097E-01
 1.575660751E+03	 8.362770677E-01
 1.576172495E+03	-9.616395235E-01
 1.576684185E+03	-3.595317006E-01
 1.577195820E+03	-1.557472706E+00
 1.577707401E+03	-1.155438185E+00
 1.578218928E+03	-1.533669531E-01
 1.578730401E+03	-5.512591600E-01
 1.579241820E+03	 1.450812101E+00
 1.579753184E+03	-3.471045494E-01
 1.580264495E+03	 1.054929972E+00
 1.580775751E+03	-3.429621756E-01
 1.581286953E+03	-1.540903211E+00
 1.581798101E+03	 1.261155844E+00
 1.582309195E+03	 1.063214779E+00
 1.582820235E+03	 8.652737737E-01
 1.583331220E+03	 4.673815668E-01
 1.583842152E+03	-3.930571556E+00
 1.584353029E+03	-1.128512621E+00
 1.584863853E+03	-1.126441479E+00
 1.585374622E+03	-1.124370337E+00
 1.585885337E+03	 1.077713132E+00
 1.586395998E+03	-7.202034593E-01
 1.586906605E+03	 4.818799198E-01
 1.587417158E+03	-1.116085529E+00
 1.587927657E+03	-3.139654994E-01
 1.588438101E+03	-1.119431332E-01
 1.588948492E+03	 8.901280761E-01
 1.589458828E+03	 2.922236621E-01
 1.589969111E+03	-1.705705166E+00
 1.590479339E+03	-5.036217570E-01
 1.590989514E+03	 2.698461533E+00
 1.591499634E+03	 7.005328536E-01
 1.592009700E+03	-4.974081814E-01
 1.592519712E+03	-1.695349216E+00
 1.593029670E+03	-1.893290162E+00
 1.593539574E+03	-1.491194606E+00
 1.594049424E+03	 5.108765960E-01
 1.594559220E+03	 5.129477978E-01
 1.595068962E+03	-8.850054145E-01
 1.595578650E+03	-1.682922006E+00
 1.596088283E+03	-8.808630705E-01
 1.596597863E+03	 1.721244693E+00
 1.597107389E+03	 1.323291540E+00
 1.597616861E+03	-2.746128738E-01
 1.598126278E+03	-1.472553849E+00
 1.598635642E+03	-2.704704702E-01
 1.599144952E+03	-4.684115052E-01
 1.599654207E+03	-1.266328096E+00
 1.600163409E+03	 5.357308984E-01
 1.600672557E+03	 1.537802100E+00
 1.601181650E+03	 3.398610651E-01
 1.601690690E+03	-2.058092117E+00
 1.602199676E+03	-2.559721470E-01
 1.602708607E+03	-1.053949833E+00
 1.603217485E+03	-4.518419802E-01
 1.603726309E+03	 7.502414584E-01
 1.604235078E+03	 2.152276039E+00
 1.604743794E+03	 2.554371595E+00
 1.605252456E+03	-1.443557262E+00
 1.605761064E+03	-2.414738089E-01
 1.606269617E+03	 1.160560727E+00
 1.606778117E+03	-4.373436272E-01
 1.607286563E+03	-4.352724254E-01
 1.607794955E+03	 5.667987466E-01
 1.608303293E+03	 1.688455343E-01
 1.608811577E+03	 1.370928884E+00
 1.609319807E+03	-1.426987648E+00
 1.609827983E+03	 1.175059080E+00
 1.610336106E+03	 9.771180749E-01
 1.610844174E+03	 1.179201484E+00
 1.611352188E+03	-1.873953082E-02
 1.611860149E+03	 1.183343887E+00
 1.612368055E+03	-2.014597178E+00
 1.612875908E+03	-1.412489295E+00
 1.613383707E+03	 9.895452261E-01
 1.613891451E+03	-3.208334684E+00
 1.614399142E+03	-1.606287956E+00
 1.614906779E+03	-4.042045772E-01
 1.615414362E+03	-1.002169967E+00
 1.615921891E+03	 3.999255896E-01
 1.616429367E+03	-3.798015356E+00
