1042.452273	740.4000244
1043.018714	737.5999756
1043.585098	737.5999756
1044.151424	735.4000244
1044.717692	736.4000244
1045.283903	741.0
1045.850056	738.5999756
1046.416151	736.2000122
1046.982188	737.5999756
1047.548167	734.7999878
1048.114089	732.7999878
1048.679953	733.5999756
1049.24576	738.2000122
1049.811509	734.5999756
1050.3772	728.7999878
1050.942833	732.2000122
1051.508408	731.2000122
1052.073926	734.7999878
1052.639387	727.2000122
1053.204789	729.7999878
1053.770134	733.7999878
1054.335421	733.4000244
1054.900651	728.7999878
1055.465823	727.4000244
1056.030937	731.0
1056.595993	727.7999878
1057.160992	730.5999756
1057.725934	731.4000244
1058.290817	725.0
1058.855643	726.7999878
1059.420411	732.2000122
1059.985122	728.7999878
1060.549775	727.4000244
1061.114371	726.7999878
1061.678908	726.2000122
1062.243389	730.4000244
1062.807811	732.5999756
1063.372176	729.4000244
1063.936483	731.5999756
1064.500733	728.7999878
1065.064925	722.2000122
1065.62906	729.5999756
1066.193137	728.0
1066.757156	724.4000244
1067.321118	726.7999878
1067.885022	727.2000122
1068.448869	726.2000122
1069.012658	724.2000122
1069.57639	724.0
1070.140063	734.4000244
1070.70368	728.0
1071.267239	729.0
1071.83074	724.5999756
1072.394184	724.4000244
1072.95757	727.0
1073.520899	724.4000244
1074.08417	726.4000244
1074.647383	733.0
1075.21054	726.0
1075.773638	723.2000122
1076.336679	725.5999756
1076.899663	735.4000244
1077.462589	726.7999878
1078.025457	723.2000122
1078.588268	725.0
1079.151022	728.4000244
1079.713718	729.2000122
1080.276356	724.7999878
1080.838937	722.5999756
1081.401461	726.2000122
1081.963927	726.4000244
1082.526336	726.5999756
1083.088687	726.7999878
1083.650981	729.2000122
1084.213217	726.4000244
1084.775396	724.0
1085.337517	723.2000122
1085.899581	725.5999756
1086.461587	725.5999756
1087.023536	728.7999878
1087.585428	726.7999878
1088.147262	726.5999756
1088.709039	726.7999878
1089.270758	728.5999756
1089.83242	729.7999878
1090.394024	724.0
1090.955571	730.7999878
1091.517061	725.4000244
1092.078493	720.4000244
1092.639868	729.0
1093.201185	726.0
1093.762445	721.4000244
1094.323648	726.7999878
1094.884793	724.5999756
1095.445881	728.2000122
1096.006911	727.2000122
1096.567884	721.2000122
1097.1288	729.4000244
1097.689659	727.2000122
1098.25046	724.4000244
1098.811203	723.5999756
1099.37189	725.7999878
1099.932518	727.0
1100.49309	728.5999756
1101.053604	725.4000244
1101.614061	728.4000244
1102.174461	723.7999878
1102.734803	724.4000244
1103.295088	721.2000122
1103.855316	725.4000244
1104.415486	726.0
1104.975599	724.0
1105.535655	723.2000122
1106.095653	725.7999878
1106.655594	725.5999756
1107.215478	731.4000244
1107.775305	729.0
1108.335074	725.4000244
1108.894786	727.7999878
1109.45444	726.0
1110.014038	725.0
1110.573578	724.5999756
1111.133061	726.7999878
1111.692486	724.4000244
1112.251854	723.4000244
1112.811165	725.4000244
1113.370419	723.4000244
1113.929616	722.2000122
1114.488755	725.7999878
1115.047837	726.4000244
1115.606862	721.0
1116.16583	729.2000122
1116.72474	730.4000244
1117.283593	729.4000244
1117.842389	728.5999756
1118.401128	729.2000122
1118.959809	725.7999878
1119.518433	727.2000122
1120.077	723.2000122
1120.63551	724.7999878
1121.193963	723.5999756
1121.752358	725.0
1122.310697	727.5999756
1122.868978	720.2000122
1123.427202	725.4000244
1123.985368	725.7999878
1124.543478	725.7999878
1125.10153	720.5999756
1125.659526	727.5999756
1126.217464	722.2000122
1126.775345	723.4000244
1127.333168	726.4000244
1127.890935	728.0
1128.448644	730.2000122
1129.006297	724.0
1129.563892	722.2000122
1130.12143	730.2000122
1130.678911	727.0
1131.236335	726.5999756
1131.793701	725.2000122
1132.351011	727.4000244
1132.908263	731.5999756
1133.465458	722.2000122
1134.022597	727.7999878
1134.579678	730.5999756
1135.136702	724.2000122
1135.693669	727.0
1136.250578	724.7999878
1136.807431	726.5999756
1137.364227	723.4000244
1137.920965	730.4000244
1138.477647	723.7999878
1139.034271	724.0
1139.590839	723.4000244
1140.147349	728.5999756
1140.703802	725.0
1141.260198	724.2000122
1141.816537	725.4000244
1142.37282	723.7999878
1142.929045	728.2000122
1143.485213	728.4000244
1144.041323	724.4000244
1144.597377	728.2000122
1145.153374	725.0
1145.709314	721.5999756
1146.265197	728.4000244
1146.821023	725.0
1147.376792	728.0
1147.932503	734.7999878
1148.488158	731.5999756
1149.043756	727.4000244
1149.599297	732.7999878
1150.154781	738.7999878
1150.710207	772.5999756
1151.265577	772.7999878
1151.82089	733.0
1152.376146	727.5999756
1152.931345	723.7999878
1153.486487	723.7999878
1154.041572	728.7999878
1154.5966	723.7999878
1155.151571	719.4000244
1155.706485	720.7999878
1156.261342	725.4000244
1156.816142	728.2000122
1157.370885	728.5999756
1157.925572	726.5999756
1158.480201	722.2000122
1159.034774	724.7999878
1159.589289	730.0
1160.143748	726.4000244
1160.698149	721.2000122
1161.252494	723.2000122
1161.806782	727.2000122
1162.361013	725.5999756
1162.915187	723.7999878
1163.469304	727.7999878
1164.023364	726.2000122
1164.577368	725.0
1165.131314	725.4000244
1165.685204	725.2000122
1166.239036	726.4000244
1166.792812	726.0
1167.346531	723.5999756
1167.900193	725.0
1168.453798	724.7999878
1169.007347	728.5999756
1169.560838	722.5999756
1170.114273	728.2000122
1170.66765	724.0
1171.220971	725.2000122
1171.774235	723.5999756
1172.327443	719.5999756
1172.880593	722.5999756
1173.433687	721.5999756
1173.986723	725.7999878
1174.539703	720.7999878
1175.092626	723.4000244
1175.645493	722.7999878
1176.198302	730.4000244
1176.751055	727.5999756
1177.303751	722.2000122
1177.85639	726.0
1178.408972	726.4000244
1178.961498	726.4000244
1179.513966	723.5999756
1180.066378	726.0
1180.618733	725.2000122
1181.171032	729.0
1181.723273	724.2000122
1182.275458	722.5999756
1182.827586	718.2000122
1183.379657	722.4000244
1183.931672	727.2000122
1184.48363	720.2000122
1185.035531	725.7999878
1185.587375	725.0
1186.139162	724.0
1186.690893	725.2000122
1187.242567	724.5999756
1187.794184	718.4000244
1188.345745	724.5999756
1188.897249	723.2000122
1189.448696	725.0
1190.000086	723.2000122
1190.55142	725.5999756
1191.102697	718.7999878
1191.653918	723.4000244
1192.205081	728.2000122
1192.756188	725.0
1193.307238	739.4000244
1193.858232	720.7999878
1194.409169	726.7999878
1194.960049	725.0
1195.510872	727.4000244
1196.061639	726.2000122
1196.612349	721.0
1197.163003	723.2000122
1197.713599	723.7999878
1198.264139	721.4000244
1198.814623	726.2000122
1199.36505	723.4000244
1199.91542	724.5999756
1200.465734	727.4000244
1201.01599	724.2000122
1201.566191	725.4000244
1202.116334	722.4000244
1202.666421	721.2000122
1203.216452	720.5999756
1203.766425	725.7999878
1204.316343	723.5999756
1204.866203	725.7999878
1205.416007	725.2000122
1205.965754	723.5999756
1206.515445	723.7999878
1207.065079	720.4000244
1207.614657	725.2000122
1208.164177	725.4000244
1208.713642	723.4000244
1209.26305	728.4000244
1209.812401	726.0
1210.361695	720.0
1210.910933	726.2000122
1211.460115	721.0
1212.00924	729.0
1212.558308	724.2000122
1213.10732	724.4000244
1213.656275	728.2000122
1214.205174	721.7999878
1214.754016	727.7999878
1215.302801	720.5999756
1215.85153	725.4000244
1216.400203	728.0
1216.948819	720.4000244
1217.497378	726.0
1218.045881	719.5999756
1218.594327	725.2000122
1219.142717	723.7999878
1219.691051	725.7999878
1220.239327	726.2000122
1220.787548	727.7999878
1221.335712	725.7999878
1221.883819	724.0
1222.43187	723.7999878
1222.979864	723.4000244
1223.527802	721.5999756
1224.075683	719.5999756
1224.623508	722.0
1225.171277	724.5999756
1225.718989	724.7999878
1226.266644	726.4000244
1226.814243	723.5999756
1227.361786	724.0
1227.909272	726.5999756
1228.456702	723.0
1229.004075	723.5999756
1229.551392	722.4000244
1230.098652	724.7999878
1230.645856	725.2000122
1231.193003	725.0
1231.740094	724.0
1232.287129	726.2000122
1232.834107	725.5999756
1233.381029	721.2000122
1233.927894	720.7999878
1234.474703	728.0
1235.021455	722.5999756
1235.568151	726.0
1236.114791	723.4000244
1236.661374	725.5999756
1237.207901	723.0
1237.754372	726.5999756
1238.300786	724.0
1238.847144	721.5999756
1239.393445	723.4000244
1239.93969	723.2000122
1240.485879	726.2000122
1241.032011	725.0
1241.578087	724.5999756
1242.124106	720.7999878
1242.67007	725.2000122
1243.215976	727.2000122
1243.761827	720.4000244
1244.307621	726.0
1244.853359	720.5999756
1245.39904	726.7999878
1245.944665	723.5999756
1246.490234	726.5999756
1247.035746	725.4000244
1247.581203	719.2000122
1248.126602	723.5999756
1248.671946	728.5999756
1249.217233	720.4000244
1249.762464	723.4000244
1250.307638	722.2000122
1250.852757	724.5999756
1251.397819	721.5999756
1251.942824	726.5999756
1252.487774	721.2000122
1253.032667	727.2000122
1253.577503	719.0
1254.122284	724.2000122
1254.667008	722.2000122
1255.211676	722.5999756
1255.756288	717.4000244
1256.300843	720.7999878
1256.845342	722.7999878
1257.389785	726.2000122
1257.934172	723.0
1258.478502	726.4000244
1259.022776	723.2000122
1259.566994	724.7999878
1260.111156	729.0
1260.655261	726.0
1261.199311	727.0
1261.743304	728.5999756
1262.28724	727.2000122
1262.831121	727.4000244
1263.374945	730.0
1263.918713	733.7999878
1264.462425	740.2000122
1265.006081	753.0
1265.54968	765.2000122
1266.093223	749.2000122
1266.636711	735.4000244
1267.180141	731.0
1267.723516	723.0
1268.266835	727.7999878
1268.810097	726.2000122
1269.353303	727.0
1269.896453	723.0
1270.439547	723.0
1270.982584	720.4000244
1271.525566	728.4000244
1272.068491	723.2000122
1272.61136	724.0
1273.154173	724.4000244
1273.69693	719.5999756
1274.239631	719.7999878
1274.782275	722.7999878
1275.324864	731.4000244
1275.867396	726.5999756
1276.409872	721.0
1276.952292	726.2000122
1277.494656	722.2000122
1278.036964	726.0
1278.579215	719.0
1279.121411	726.4000244
1279.66355	719.7999878
1280.205634	728.5999756
1280.747661	726.7999878
1281.289632	725.7999878
1281.831547	728.7999878
1282.373406	736.2000122
1282.915209	739.7999878
1283.456955	744.5999756
1283.998646	769.4000244
1284.540281	841.0
1285.081859	1060.0
1285.623381	1368.0
1286.164848	1091.199951
1286.706258	819.0
1287.247612	755.5999756
1287.788911	739.0
1288.330153	733.7999878
1288.871339	732.2000122
1289.412469	728.5999756
1289.953543	727.2000122
1290.494561	728.4000244
1291.035523	728.7999878
1291.576428	724.0
1292.117278	719.7999878
1292.658072	720.2000122
1293.19881	726.5999756
1293.739492	716.4000244
1294.280118	727.5999756
1294.820687	724.5999756
1295.361201	721.4000244
1295.901659	726.0
1296.442061	717.0
1296.982406	721.4000244
1297.522696	722.7999878
1298.06293	719.2000122
1298.603108	723.5999756
1299.143229	719.0
1299.683295	724.5999756
1300.223305	718.0
1300.763259	722.5999756
1301.303157	722.0
1301.842999	722.5999756
1302.382785	718.4000244
1302.922515	722.4000244
1303.462189	722.5999756
1304.001807	720.5999756
1304.541369	717.2000122
1305.080875	718.4000244
1305.620326	725.0
1306.15972	721.5999756
1306.699058	721.2000122
1307.238341	718.4000244
1307.777567	723.2000122
1308.316738	719.0
1308.855853	721.5999756
1309.394912	719.5999756
1309.933915	721.5999756
1310.472862	723.7999878
1311.011753	717.2000122
1311.550588	719.4000244
1312.089367	720.5999756
1312.62809	720.2000122
1313.166758	722.4000244
1313.70537	718.5999756
1314.243925	720.5999756
1314.782425	717.7999878
1315.320869	715.7999878
1315.859257	715.4000244
1316.397589	721.2000122
1316.935866	717.0
1317.474086	720.5999756
1318.012251	722.5999756
1318.55036	721.5999756
1319.088413	721.7999878
1319.62641	718.2000122
1320.164351	715.2000122
1320.702236	711.5999756
1321.240066	718.0
1321.777839	716.0
1322.315557	717.7999878
1322.853219	719.4000244
1323.390826	718.2000122
1323.928376	728.2000122
1324.465871	717.2000122
1325.003309	722.0
1325.540692	720.2000122
1326.07802	721.7999878
1326.615291	716.5999756
1327.152506	720.2000122
1327.689666	718.5999756
1328.22677	721.2000122
1328.763818	718.2000122
1329.300811	717.2000122
1329.837747	720.2000122
1330.374628	718.7999878
1330.911453	718.7999878
1331.448222	717.2000122
1331.984936	718.7999878
1332.521594	717.2000122
1333.058196	720.4000244
1333.594742	713.2000122
1334.131232	718.4000244
1334.667667	720.0
1335.204046	720.2000122
1335.740369	721.0
1336.276637	720.2000122
1336.812848	717.2000122
1337.349004	719.2000122
1337.885105	723.7999878
1338.421149	715.4000244
1338.957138	717.0
1339.493071	721.7999878
1340.028949	718.4000244
1340.56477	718.7999878
1341.100536	719.7999878
1341.636246	718.7999878
1342.171901	718.4000244
1342.7075	718.7999878
1343.243043	718.0
1343.77853	719.2000122
1344.313962	716.0
1344.849338	719.4000244
1345.384659	715.4000244
1345.919923	718.5999756
1346.455133	715.2000122
1346.990286	718.5999756
1347.525384	721.4000244
1348.060426	716.0
1348.595412	718.7999878
1349.130343	720.0
1349.665218	716.5999756
1350.200037	716.4000244
1350.734801	719.7999878
1351.269509	718.0
1351.804162	716.5999756
1352.338758	723.5999756
1352.8733	718.2000122
1353.407785	715.7999878
1353.942215	717.2000122
1354.476589	720.5999756
1355.010908	715.0
1355.545171	718.0
1356.079379	722.5999756
1356.61353	715.4000244
1357.147627	723.0
1357.681667	719.5999756
1358.215652	719.4000244
1358.749582	722.7999878
1359.283456	719.4000244
1359.817274	717.4000244
1360.351037	714.7999878
1360.884744	712.7999878
1361.418395	719.2000122
1361.951991	719.0
1362.485531	718.4000244
1363.019016	718.7999878
1363.552445	717.4000244
1364.085819	719.5999756
1364.619137	716.2000122
1365.1524	718.2000122
1365.685607	717.2000122
1366.218758	719.2000122
1366.751854	719.4000244
1367.284894	719.2000122
1367.817879	715.2000122
1368.350808	721.4000244
1368.883682	720.5999756
1369.4165	720.4000244
1369.949263	722.4000244
1370.48197	737.4000244
1371.014622	729.5999756
1371.547218	721.4000244
1372.079758	718.2000122
1372.612244	720.7999878
1373.144673	722.5999756
1373.677047	722.7999878
1374.209366	721.2000122
1374.741629	714.0
1375.273836	722.7999878
1375.805989	717.7999878
1376.338085	724.5999756
1376.870126	716.5999756
1377.402112	719.5999756
1377.934042	718.5999756
1378.465917	719.0
1378.997736	718.0
1379.5295	724.4000244
1380.061208	720.2000122
1380.592861	724.2000122
1381.124459	719.2000122
1381.656	718.5999756
1382.187487	720.5999756
1382.718918	720.4000244
1383.250294	721.5999756
1383.781614	723.2000122
1384.312879	723.7999878
1384.844088	726.4000244
1385.375242	727.2000122
1385.90634	732.0
1386.437383	744.0
1386.968371	752.2000122
1387.499303	783.7999878
1388.03018	906.4000244
1388.561001	1473.0
1389.091767	1840.199951
1389.622478	1074.0
1390.153133	797.7999878
1390.683733	750.2000122
1391.214277	733.4000244
1391.744766	729.5999756
1392.2752	727.7999878
1392.805578	723.0
1393.335901	726.2000122
1393.866168	724.2000122
1394.396381	721.7999878
1394.926537	718.4000244
1395.456639	716.5999756
1395.986685	718.7999878
1396.516675	722.0
1397.046611	717.5999756
1397.576491	715.7999878
1398.106315	721.5999756
1398.636084	715.2000122
1399.165798	722.5999756
1399.695457	718.0
1400.22506	717.7999878
1400.754608	718.0
1401.284101	719.2000122
1401.813538	715.5999756
1402.34292	722.5999756
1402.872247	720.4000244
1403.401518	717.7999878
1403.930734	721.0
1404.459895	719.7999878
1404.989	718.2000122
1405.51805	718.0
1406.047045	715.5999756
1406.575984	718.0
1407.104869	719.5999756
1407.633697	724.0
1408.162471	720.7999878
1408.691189	729.4000244
1409.219852	739.0
1409.74846	758.4000244
1410.277013	796.2000122
1410.80551	773.0
1411.333952	738.7999878
1411.862339	725.4000244
1412.39067	720.0
1412.918946	716.0
1413.447167	723.5999756
1413.975333	715.7999878
1414.503444	717.5999756
1415.031499	713.2000122
1415.559499	726.0
1416.087444	716.4000244
1416.615333	716.0
1417.143167	715.5999756
1417.670947	715.2000122
1418.19867	710.5999756
1418.726339	713.4000244
1419.253952	720.0
1419.781511	712.5999756
1420.309014	710.7999878
1420.836461	715.7999878
1421.363854	717.0
1421.891191	715.5999756
1422.418474	722.2000122
1422.945701	717.0
1423.472872	715.7999878
1423.999989	712.4000244
1424.52705	711.7999878
1425.054057	716.2000122
1425.581008	714.7999878
1426.107904	718.0
1426.634745	719.2000122
1427.16153	713.0
1427.688261	719.7999878
1428.214936	714.4000244
1428.741556	715.2000122
1429.268121	713.5999756
1429.794631	720.2000122
1430.321085	716.2000122
1430.847485	714.2000122
1431.373829	714.7999878
1431.900118	714.5999756
1432.426353	714.5999756
1432.952532	714.2000122
1433.478655	711.4000244
1434.004724	715.5999756
1434.530738	711.0
1435.056696	710.7999878
1435.5826	715.0
1436.108448	717.0
1436.634241	713.2000122
1437.159979	713.5999756
1437.685662	715.5999756
1438.21129	714.5999756
1438.736863	715.5999756
1439.262381	713.7999878
1439.787843	713.4000244
1440.313251	716.7999878
1440.838603	713.0
1441.3639	713.7999878
1441.889143	713.2000122
1442.41433	713.7999878
1442.939462	710.7999878
1443.464539	719.0
1443.989561	713.5999756
1444.514528	714.5999756
1445.03944	711.5999756
1445.564297	716.4000244
1446.089099	711.5999756
1446.613846	713.0
1447.138537	715.2000122
1447.663174	712.2000122
1448.187756	712.5999756
1448.712282	713.4000244
1449.236754	717.2000122
1449.761171	711.0
1450.285532	714.4000244
1450.809839	715.2000122
1451.33409	711.4000244
1451.858287	713.0
1452.382428	708.2000122
1452.906515	714.2000122
1453.430546	714.5999756
1453.954523	712.2000122
1454.478444	708.7999878
1455.002311	714.5999756
1455.526123	713.4000244
1456.049879	713.7999878
1456.573581	708.2000122
1457.097227	714.4000244
1457.620819	712.7999878
1458.144356	714.5999756
1458.667837	715.5999756
1459.191264	711.7999878
1459.714636	710.7999878
1460.237952	711.4000244
1460.761214	712.0
1461.284421	712.2000122
1461.807573	712.2000122
1462.33067	712.2000122
1462.853712	715.2000122
1463.376699	720.5999756
1463.899632	717.4000244
1464.422509	718.5999756
1464.945331	707.7999878
1465.468099	714.5999756
1465.990811	709.7999878
1466.513469	714.7999878
1467.036071	712.2000122
1467.558619	712.7999878
1468.081112	712.7999878
1468.60355	711.0
1469.125933	710.2000122
1469.648261	711.7999878
1470.170534	713.7999878
1470.692752	710.2000122
1471.214916	713.7999878
1471.737024	711.4000244
1472.259078	710.4000244
1472.781077	709.0
1473.303021	707.7999878
1473.82491	712.2000122
1474.346744	713.5999756
1474.868523	709.7999878
1475.390248	716.7999878
1475.911917	711.5999756
1476.433532	716.0
1476.955092	712.7999878
1477.476597	712.0
1477.998047	709.2000122
1478.519442	708.7999878
1479.040783	712.0
1480.604475	712.4000244
1481.125596	707.2000122
1481.646663	710.2000122
1482.167674	709.2000122
1482.688631	710.2000122
1483.209533	712.0
1483.73038	711.4000244
1484.251172	712.4000244
1484.771909	713.5999756
1485.292592	713.4000244
1485.81322	712.2000122
1486.333793	709.5999756
1486.854311	710.4000244
1487.374775	712.4000244
1487.895183	712.2000122
1488.415537	714.4000244
1488.935836	711.0
1489.456081	707.0
1489.97627	713.4000244
1490.496405	707.7999878
1491.016485	711.5999756
1491.536511	714.4000244
1492.056481	712.5999756
1492.576397	710.0
1493.096258	714.5999756
1493.616064	710.0
1494.135816	712.0
1494.655513	711.4000244
1495.175155	714.7999878
1495.694742	710.2000122
1496.214274	706.5999756
1496.733752	712.7999878
1497.253175	711.7999878
1497.772544	704.0
1498.291858	713.7999878
1498.811116	714.2000122
1499.330321	713.7999878
1499.84947	715.5999756
1500.368565	710.5999756
1500.887605	706.5999756
1501.406591	714.0
1501.925521	711.0
1502.444397	710.2000122
1502.963219	714.4000244
1503.481985	705.7999878
1504.000697	709.5999756
1504.519355	717.2000122
1505.037957	709.7999878
1505.556505	709.4000244
1506.074999	707.0
1506.593437	704.7999878
1507.111821	711.0
1507.63015	705.2000122
1508.148425	712.7999878
1508.666645	712.5999756
1509.18481	709.4000244
1509.702921	709.7999878
1510.220977	711.0
1510.738979	716.0
1511.256925	711.7999878
1511.774817	712.0
1512.292655	709.0
1512.810438	711.2000122
1513.328166	705.5999756
1513.84584	710.0
1514.363459	705.5999756
1514.881023	705.5999756
1515.398533	708.7999878
1515.915988	707.7999878
1516.433389	710.7999878
1516.950734	706.2000122
1517.468026	709.0
1517.985263	711.2000122
1518.502445	706.7999878
1519.019572	706.7999878
1519.536645	712.7999878
1520.053664	714.4000244
1520.570628	706.2000122
1521.087537	707.5999756
1521.604392	705.2000122
1522.121192	708.2000122
1522.637937	711.4000244
1523.154628	713.4000244
1523.671265	710.7999878
1524.187847	709.0
1524.704374	707.5999756
1525.220847	705.4000244
1525.737265	711.5999756
1526.253629	713.7999878
1526.769938	707.7999878
1527.286192	708.7999878
1527.802392	710.2000122
1528.318538	707.4000244
1528.834629	706.7999878
1529.350666	710.4000244
1529.866648	709.5999756
1530.382575	707.4000244
1530.898448	708.7999878
1531.414266	709.5999756
1531.93003	708.2000122
1532.44574	709.7999878
1532.961395	707.0
1533.476995	709.7999878
1533.992541	704.4000244
1534.508033	711.0
1535.02347	706.7999878
1535.538852	706.7999878
1536.05418	707.0
1536.569454	709.4000244
1537.084673	706.4000244
1537.599837	707.4000244
1538.114947	706.5999756
1538.630003	710.4000244
1539.145004	711.4000244
1539.659951	709.2000122
1540.174843	707.5999756
1540.689681	708.4000244
1541.204465	707.5999756
1541.719194	709.4000244
1542.233868	710.4000244
1542.748488	708.2000122
1543.263054	706.5999756
1543.777565	703.7999878
1544.292022	708.4000244
1544.806424	708.7999878
1545.320772	708.2000122
1545.835066	712.7999878
1546.349305	707.0
1546.863489	704.4000244
1547.37762	706.4000244
1547.891696	709.5999756
1548.405717	708.0
1548.919684	705.0
1549.433597	708.4000244
1549.947455	707.5999756
1550.461259	712.2000122
1550.975009	709.4000244
1551.488704	712.7999878
1552.002345	710.4000244
1552.515931	710.5999756
1553.029463	709.0
1553.542941	705.0
1554.056364	707.7999878
1554.569733	710.5999756
1555.083048	708.7999878
1555.596308	710.4000244
1556.109514	707.7999878
1556.622665	705.4000244
1557.135762	711.2000122
1557.648805	705.7999878
1558.161794	710.5999756
1558.674728	706.5999756
1559.187608	708.0
1559.700433	705.7999878
1560.213205	705.2000122
1560.725921	706.5999756
1561.238584	711.5999756
1561.751192	707.5999756
1562.263746	709.4000244
1562.776246	712.2000122
1563.288691	705.2000122
1563.801082	705.4000244
1564.313419	705.7999878
1564.825701	710.4000244
1565.337929	707.4000244
1565.850103	705.7999878
1566.362223	709.4000244
1566.874288	713.0
1567.386299	712.2000122
1567.898256	710.4000244
1568.410158	711.4000244
1568.922007	706.5999756
1569.4338	708.7999878
1569.94554	710.4000244
1570.457226	706.4000244
1570.968857	709.2000122
1571.480434	707.2000122
1571.991956	707.5999756
1572.503425	711.0
1573.014839	707.7999878
1573.526199	711.4000244
1574.037505	708.2000122
1574.548756	707.7999878
1575.059953	709.5999756
1575.571096	709.0
1576.082185	708.0
1576.59322	710.7999878
1577.1042	708.7999878
1577.615126	710.4000244
1578.125998	706.4000244
1578.636816	711.4000244
1579.14758	706.0
1579.658289	712.7999878
1580.168944	709.5999756
1580.679545	705.7999878
1581.190092	712.4000244
1581.700585	704.7999878
1582.211023	712.2000122
1582.721407	709.5999756
1583.231737	711.4000244
1583.742013	711.7999878
1584.252235	709.2000122
1584.762403	709.5999756
1585.272516	705.0
1585.782575	708.2000122
1586.292581	707.2000122
1586.802532	713.2000122
1587.312428	708.5999756
1587.822271	710.0
1588.33206	709.4000244
1588.841794	706.2000122
1589.351474	706.7999878
1589.8611	707.7999878
1590.370672	704.7999878
1590.88019	706.2000122
1591.389654	706.0
1591.899064	704.4000244
1592.408419	703.0
