1042.452273	3838.399902
1043.018714	3838.399902
1043.585098	3823.600098
1044.151424	3836.199951
1044.717692	3832.0
1045.283903	3825.0
1045.850056	3802.800049
1046.416151	3844.399902
1046.982188	3801.199951
1047.548167	3817.399902
1048.114089	3833.0
1048.679953	3800.199951
1049.24576	3850.399902
1049.811509	3811.199951
1050.3772	3772.0
1050.942833	3787.199951
1051.508408	3830.399902
1052.073926	3763.800049
1052.639387	3809.0
1053.204789	3782.800049
1053.770134	3780.600098
1054.335421	3777.0
1054.900651	3783.0
1055.465823	3761.199951
1056.030937	3808.199951
1056.595993	3779.0
1057.160992	3765.800049
1057.725934	3771.800049
1058.290817	3768.0
1058.855643	3775.199951
1059.420411	3793.800049
1059.985122	3770.600098
1060.549775	3791.199951
1061.114371	3775.199951
1061.678908	3751.399902
1062.243389	3745.399902
1062.807811	3728.600098
1063.372176	3720.800049
1063.936483	3762.399902
1064.500733	3726.399902
1065.064925	3777.0
1065.62906	3732.399902
1066.193137	3723.800049
1066.757156	3730.399902
1067.321118	3744.0
1067.885022	3721.399902
1068.448869	3717.0
1069.012658	3735.0
1069.57639	3740.800049
1070.140063	3729.800049
1070.70368	3746.800049
1071.267239	3743.0
1071.83074	3720.800049
1072.394184	3718.800049
1072.95757	3716.0
1073.520899	3706.399902
1074.08417	3726.800049
1074.647383	3697.0
1075.21054	3742.399902
1075.773638	3674.0
1076.336679	3702.199951
1076.899663	3657.399902
1077.462589	3700.800049
1078.025457	3680.800049
1078.588268	3669.0
1079.151022	3673.399902
1079.713718	3685.199951
1080.276356	3666.600098
1080.838937	3666.399902
1081.401461	3654.399902
1081.963927	3694.0
1082.526336	3666.199951
1083.088687	3653.800049
1083.650981	3640.399902
1084.213217	3667.0
1084.775396	3621.800049
1085.337517	3656.399902
1085.899581	3656.800049
1086.461587	3644.800049
1087.023536	3634.199951
1087.585428	3653.600098
1088.147262	3627.600098
1088.709039	3626.600098
1089.270758	3650.199951
1089.83242	3620.600098
1090.394024	3637.0
1090.955571	3635.600098
1091.517061	3602.800049
1092.078493	3580.800049
1092.639868	3583.0
1093.201185	3623.0
1093.762445	3604.600098
1094.323648	3624.199951
1094.884793	3585.0
1095.445881	3623.600098
1096.006911	3570.800049
1096.567884	3597.0
1097.1288	3574.0
1097.689659	3579.600098
1098.25046	3577.600098
1098.811203	3584.0
1099.37189	3552.399902
1099.932518	3568.0
1100.49309	3536.800049
1101.053604	3583.199951
1101.614061	3522.0
1102.174461	3585.800049
1102.734803	3529.399902
1103.295088	3563.0
1103.855316	3553.600098
1104.415486	3538.199951
1104.975599	3524.800049
1105.535655	3509.0
1106.095653	3524.399902
1106.655594	3534.0
1107.215478	3498.800049
1107.775305	3546.0
1108.335074	3499.199951
1108.894786	3538.399902
1109.45444	3479.0
1110.014038	3511.600098
1110.573578	3500.0
1111.133061	3530.800049
1111.692486	3456.199951
1112.251854	3525.0
1112.811165	3470.800049
1113.370419	3507.800049
1113.929616	3474.199951
1114.488755	3495.399902
1115.047837	3446.800049
1115.606862	3516.800049
1116.16583	3465.399902
1116.72474	3504.199951
1117.283593	3444.0
1117.842389	3462.600098
1118.401128	3450.800049
1118.959809	3478.0
1119.518433	3451.399902
1120.077	3484.199951
1120.63551	3417.399902
1121.193963	3458.800049
1121.752358	3445.0
1122.310697	3458.600098
1122.868978	3439.199951
1123.427202	3477.800049
1123.985368	3448.199951
1124.543478	3451.800049
1125.10153	3428.199951
1125.659526	3446.199951
1126.217464	3424.800049
1126.775345	3436.600098
1127.333168	3459.399902
1127.890935	3441.800049
1128.448644	3429.0
1129.006297	3452.0
1129.563892	3401.600098
1130.12143	3422.600098
1130.678911	3428.0
1131.236335	3426.199951
1131.793701	3402.399902
1132.351011	3431.800049
1132.908263	3397.199951
1133.465458	3458.0
1134.022597	3399.600098
1134.579678	3451.399902
1135.136702	3389.199951
1135.693669	3445.600098
1136.250578	3393.600098
1136.807431	3418.600098
1137.364227	3398.199951
1137.920965	3418.0
1138.477647	3389.399902
1139.034271	3414.199951
1139.590839	3392.199951
1140.147349	3374.199951
1140.703802	3412.800049
1141.260198	3411.399902
1141.816537	3434.0
1142.37282	3388.0
1142.929045	3411.199951
1143.485213	3388.0
1144.041323	3386.800049
1144.597377	3420.399902
1145.153374	3430.600098
1145.709314	3424.800049
1146.265197	3393.399902
1146.821023	3397.399902
1147.376792	3402.0
1147.932503	3407.399902
1148.488158	3382.0
1149.043756	3387.199951
1149.599297	3389.0
1150.154781	3388.0
1150.710207	3383.0
1151.265577	3381.0
1151.82089	3402.800049
1152.376146	3397.399902
1152.931345	3379.600098
1153.486487	3369.600098
1154.041572	3365.199951
1154.5966	3393.399902
1155.151571	3412.800049
1155.706485	3394.800049
1156.261342	3393.0
1156.816142	3389.199951
1157.370885	3386.199951
1157.925572	3414.600098
1158.480201	3402.600098
1159.034774	3350.800049
1159.589289	3376.199951
1160.143748	3382.199951
1160.698149	3349.199951
1161.252494	3358.399902
1161.806782	3403.0
1162.361013	3334.800049
1162.915187	3366.399902
1163.469304	3344.0
1164.023364	3370.800049
1164.577368	3348.199951
1165.131314	3371.600098
1165.685204	3333.199951
1166.239036	3369.0
1166.792812	3337.600098
1167.346531	3374.600098
1167.900193	3332.800049
1168.453798	3370.399902
1169.007347	3373.199951
1169.560838	3353.399902
1170.114273	3328.800049
1170.66765	3329.600098
1171.220971	3333.199951
1171.774235	3347.600098
1172.327443	3328.199951
1172.880593	3347.199951
1173.433687	3319.600098
1173.986723	3343.0
1174.539703	3324.399902
1175.092626	3336.399902
1175.645493	3323.800049
1176.198302	3323.199951
1176.751055	3292.0
1177.303751	3316.399902
1177.85639	3339.399902
1178.408972	3349.399902
1178.961498	3364.199951
1179.513966	3284.600098
1180.066378	3314.600098
1180.618733	3293.800049
1181.171032	3310.399902
1181.723273	3329.800049
1182.275458	3314.199951
1182.827586	3283.399902
1183.379657	3293.600098
1183.931672	3294.800049
1184.48363	3284.600098
1185.035531	3300.199951
1185.587375	3270.800049
1186.139162	3284.600098
1186.690893	3284.600098
1187.242567	3275.199951
1187.794184	3297.0
1188.345745	3281.600098
1188.897249	3316.0
1189.448696	3267.399902
1190.000086	3287.600098
1190.55142	3271.800049
1191.102697	3279.0
1191.653918	3271.800049
1192.205081	3282.399902
1192.756188	3263.600098
1193.307238	3301.0
1193.858232	3260.0
1194.409169	3268.399902
1194.960049	3258.600098
1195.510872	3238.399902
1196.061639	3260.399902
1196.612349	3264.199951
1197.163003	3266.199951
1197.713599	3253.0
1198.264139	3230.199951
1198.814623	3260.399902
1199.36505	3224.600098
1199.91542	3247.399902
1200.465734	3242.800049
1201.01599	3235.399902
1201.566191	3230.800049
1202.116334	3242.199951
1202.666421	3233.399902
1203.216452	3231.800049
1203.766425	3218.600098
1204.316343	3208.399902
1204.866203	3209.600098
1205.416007	3219.0
1205.965754	3208.600098
1206.515445	3223.399902
1207.065079	3198.600098
1207.614657	3220.0
1208.164177	3187.600098
1208.713642	3210.0
1209.26305	3222.0
1209.812401	3188.800049
1210.361695	3197.399902
1210.910933	3201.0
1211.460115	3178.800049
1212.00924	3185.199951
1212.558308	3194.399902
1213.10732	3203.199951
1213.656275	3176.399902
1214.205174	3178.800049
1214.754016	3190.0
1215.302801	3163.800049
1215.85153	3178.600098
1216.400203	3161.0
1216.948819	3173.199951
1217.497378	3181.0
1218.045881	3185.800049
1218.594327	3193.600098
1219.142717	3198.600098
1219.691051	3178.199951
1220.239327	3161.199951
1220.787548	3143.199951
1221.335712	3146.399902
1221.883819	3150.600098
1222.43187	3140.399902
1222.979864	3175.0
1223.527802	3140.199951
1224.075683	3169.800049
1224.623508	3136.600098
1225.171277	3159.399902
1225.718989	3129.600098
1226.266644	3152.199951
1226.814243	3152.199951
1227.361786	3106.600098
1227.909272	3122.0
1228.456702	3126.199951
1229.004075	3132.199951
1229.551392	3157.600098
1230.098652	3123.600098
1230.645856	3112.399902
1231.193003	3130.0
1231.740094	3108.600098
1232.287129	3137.600098
1232.834107	3080.0
1233.381029	3148.199951
1233.927894	3137.199951
1234.474703	3134.399902
1235.021455	3122.399902
1235.568151	3118.0
1236.114791	3090.800049
1236.661374	3100.800049
1237.207901	3094.800049
1237.754372	3112.600098
1238.300786	3122.600098
1238.847144	3109.600098
1239.393445	3083.199951
1239.93969	3109.199951
1240.485879	3102.800049
1241.032011	3085.600098
1241.578087	3100.399902
1242.124106	3078.600098
1242.67007	3085.800049
1243.215976	3095.399902
1243.761827	3067.0
1244.307621	3088.0
1244.853359	3084.800049
1245.39904	3075.399902
1245.944665	3072.0
1246.490234	3071.199951
1247.035746	3093.800049
1247.581203	3074.199951
1248.126602	3071.0
1248.671946	3060.199951
1249.217233	3085.199951
1249.762464	3085.800049
1250.307638	3077.600098
1250.852757	3064.399902
1251.397819	3090.800049
1251.942824	3038.0
1252.487774	3058.800049
1253.032667	3066.399902
1253.577503	3067.0
1254.122284	3065.399902
1254.667008	3054.800049
1255.211676	3037.600098
1255.756288	3053.399902
1256.300843	3020.800049
1256.845342	3045.600098
1257.389785	3047.800049
1257.934172	3048.800049
1258.478502	3057.600098
1259.022776	3014.800049
1259.566994	3044.0
1260.111156	3068.800049
1260.655261	3068.399902
1261.199311	3036.199951
1261.743304	3042.399902
1262.28724	3040.0
1262.831121	3030.0
1263.374945	3053.199951
1263.918713	2994.399902
1264.462425	3016.600098
1265.006081	3020.600098
1265.54968	3026.199951
1266.093223	3037.199951
1266.636711	3034.199951
1267.180141	3044.0
1267.723516	3015.800049
1268.266835	3021.199951
1268.810097	3015.800049
1269.353303	2995.800049
1269.896453	3004.399902
1270.439547	3020.0
1270.982584	3000.600098
1271.525566	3004.0
1272.068491	3003.399902
1272.61136	2998.800049
1273.154173	2994.800049
1273.69693	3011.0
1274.239631	2995.0
1274.782275	2991.0
1275.324864	3021.199951
1275.867396	2974.600098
1276.409872	2992.600098
1276.952292	3012.0
1277.494656	2976.600098
1278.036964	2983.800049
1278.579215	2978.800049
1279.121411	2984.0
1279.66355	2982.199951
1280.205634	2990.800049
1280.747661	2997.199951
1281.289632	2982.600098
1281.831547	2969.199951
1282.373406	3005.199951
1282.915209	2963.600098
1283.456955	2985.800049
1283.998646	2966.199951
1284.540281	2986.0
1285.081859	2977.399902
1285.623381	3024.800049
1286.164848	3123.0
1286.706258	3037.0
1287.247612	2974.0
1287.788911	2963.199951
1288.330153	2945.399902
1288.871339	2983.800049
1289.412469	2965.199951
1289.953543	2952.600098
1290.494561	2952.800049
1291.035523	2928.800049
1291.576428	2946.0
1292.117278	2919.800049
1292.658072	2932.800049
1293.19881	2947.600098
1293.739492	2944.0
1294.280118	2940.0
1294.820687	2937.199951
1295.361201	2920.0
1295.901659	2922.399902
1296.442061	2937.600098
1296.982406	2919.800049
1297.522696	2918.399902
1298.06293	2910.199951
1298.603108	2929.800049
1299.143229	2912.800049
1299.683295	2953.399902
1300.223305	2947.399902
1300.763259	2938.800049
1301.303157	2917.0
1301.842999	2929.800049
1302.382785	2876.600098
1302.922515	2921.0
1303.462189	2923.0
1304.001807	2902.399902
1304.541369	2935.399902
1305.080875	2900.800049
1305.620326	2904.600098
1306.15972	2899.600098
1306.699058	2909.600098
1307.238341	2903.0
1307.777567	2925.199951
1308.316738	2868.800049
1308.855853	2892.399902
1309.394912	2896.199951
1309.933915	2874.0
1310.472862	2908.600098
1311.011753	2896.800049
1311.550588	2876.399902
1312.089367	2915.600098
1312.62809	2864.800049
1313.166758	2881.0
1313.70537	2854.600098
1314.243925	2882.600098
1314.782425	2846.800049
1315.320869	2863.800049
1315.859257	2854.399902
1316.397589	2858.600098
1316.935866	2846.399902
1317.474086	2859.199951
1318.012251	2862.0
1318.55036	2844.800049
1319.088413	2857.800049
1319.62641	2836.800049
1320.164351	2847.600098
1320.702236	2858.0
1321.240066	2860.600098
1321.777839	2833.199951
1322.315557	2845.199951
1322.853219	2869.399902
1323.390826	2856.800049
1323.928376	2832.600098
1324.465871	2845.199951
1325.003309	2800.0
1325.540692	2850.199951
1326.07802	2837.399902
1326.615291	2847.600098
1327.152506	2831.399902
1327.689666	2844.800049
1328.22677	2839.0
1328.763818	2809.0
1329.300811	2831.0
1329.837747	2807.800049
1330.374628	2828.800049
1330.911453	2807.0
1331.448222	2811.800049
1331.984936	2819.399902
1332.521594	2821.399902
1333.058196	2818.399902
1333.594742	2801.399902
1334.131232	2788.800049
1334.667667	2812.800049
1335.204046	2792.0
1335.740369	2817.199951
1336.276637	2801.600098
1336.812848	2831.199951
1337.349004	2790.0
1337.885105	2802.0
1338.421149	2809.0
1338.957138	2801.199951
1339.493071	2772.199951
1340.028949	2789.800049
1340.56477	2782.199951
1341.100536	2771.0
1341.636246	2795.199951
1342.171901	2786.600098
1342.7075	2787.399902
1343.243043	2768.399902
1343.77853	2770.199951
1344.313962	2773.800049
1344.849338	2782.199951
1345.384659	2763.800049
1345.919923	2783.199951
1346.455133	2765.199951
1346.990286	2782.0
1347.525384	2755.399902
1348.060426	2785.0
1348.595412	2777.800049
1349.130343	2786.0
1349.665218	2760.800049
1350.200037	2777.800049
1350.734801	2774.199951
1351.269509	2768.399902
1351.804162	2762.399902
1352.338758	2782.600098
1352.8733	2771.199951
1353.407785	2748.199951
1353.942215	2752.399902
1354.476589	2750.199951
1355.010908	2758.0
1355.545171	2728.800049
1356.079379	2749.800049
1356.61353	2740.399902
1357.147627	2742.399902
1357.681667	2752.399902
1358.215652	2757.800049
1358.749582	2727.0
1359.283456	2754.199951
1359.817274	2723.600098
1360.351037	2717.199951
1360.884744	2723.199951
1361.418395	2730.399902
1361.951991	2720.199951
1362.485531	2741.199951
1363.019016	2736.399902
1363.552445	2729.0
1364.085819	2743.399902
1364.619137	2724.600098
1365.1524	2736.0
1365.685607	2719.199951
1366.218758	2719.0
1366.751854	2712.800049
1367.284894	2738.0
1367.817879	2708.0
1368.350808	2749.600098
1368.883682	2687.600098
1369.4165	2718.399902
1369.949263	2729.399902
1370.48197	2726.600098
1371.014622	2730.199951
1371.547218	2713.600098
1372.079758	2695.399902
1372.612244	2680.199951
1373.144673	2719.600098
1373.677047	2692.199951
1374.209366	2708.800049
1374.741629	2719.0
1375.273836	2725.199951
1375.805989	2696.0
1376.338085	2715.399902
1376.870126	2694.399902
1377.402112	2707.399902
1377.934042	2698.800049
1378.465917	2701.600098
1378.997736	2683.199951
1379.5295	2683.600098
1380.061208	2701.399902
1380.592861	2689.0
1381.124459	2693.800049
1381.656	2677.600098
1382.187487	2699.399902
1382.718918	2663.0
1383.250294	2677.600098
1383.781614	2669.800049
1384.312879	2704.399902
1384.844088	2683.0
1385.375242	2673.0
1385.90634	2668.600098
1386.437383	2684.800049
1386.968371	2685.0
1387.499303	2696.399902
1388.03018	2682.0
1388.561001	2734.399902
1389.091767	2900.199951
1389.622478	2841.0
1390.153133	2686.0
1390.683733	2653.0
1391.214277	2689.800049
1391.744766	2675.199951
1392.2752	2674.399902
1392.805578	2670.600098
1393.335901	2669.0
1393.866168	2640.800049
1394.396381	2668.199951
1394.926537	2666.399902
1395.456639	2664.199951
1395.986685	2655.0
1396.516675	2655.399902
1397.046611	2641.199951
1397.576491	2661.800049
1398.106315	2650.399902
1398.636084	2656.0
1399.165798	2662.800049
1399.695457	2636.800049
1400.22506	2662.600098
1400.754608	2635.800049
1401.284101	2657.600098
1401.813538	2649.0
1402.34292	2654.199951
1402.872247	2636.0
1403.401518	2628.0
1403.930734	2627.800049
1404.459895	2651.399902
1404.989	2625.199951
1405.51805	2648.0
1406.047045	2624.0
1406.575984	2615.0
1407.104869	2637.199951
1407.633697	2603.800049
1408.162471	2655.800049
1408.691189	2637.800049
1409.219852	2630.600098
1409.74846	2654.800049
1410.277013	2656.399902
1410.80551	2652.600098
1411.333952	2649.600098
1411.862339	2632.0
1412.39067	2645.199951
1412.918946	2611.199951
1413.447167	2637.399902
1413.975333	2628.800049
1414.503444	2634.199951
1415.031499	2615.399902
1415.559499	2599.399902
1416.087444	2629.800049
1416.615333	2610.600098
1417.143167	2613.800049
1417.670947	2617.0
1418.19867	2608.600098
1418.726339	2608.199951
1419.253952	2639.0
1419.781511	2629.199951
1420.309014	2613.199951
1420.836461	2611.0
1421.363854	2601.199951
1421.891191	2620.399902
1422.418474	2573.600098
1422.945701	2620.399902
1423.472872	2609.399902
1423.999989	2605.800049
1424.52705	2598.199951
1425.054057	2608.0
1425.581008	2606.399902
1426.107904	2612.0
1426.634745	2608.800049
1427.16153	2610.199951
1427.688261	2597.399902
1428.214936	2586.0
1428.741556	2603.600098
1429.268121	2613.800049
1429.794631	2615.199951
1430.321085	2614.600098
1430.847485	2606.199951
1431.373829	2584.0
1431.900118	2561.199951
1432.426353	2585.0
1432.952532	2599.800049
1433.478655	2580.0
1434.004724	2579.399902
1434.530738	2570.399902
1435.056696	2585.800049
1435.5826	2585.800049
1436.108448	2574.0
1436.634241	2578.800049
1437.159979	2568.0
1437.685662	2585.600098
1438.21129	2566.399902
1438.736863	2543.199951
1439.262381	2581.0
1439.787843	2566.199951
1440.313251	2541.199951
1440.838603	2571.0
1441.3639	2553.800049
1441.889143	2546.600098
1442.41433	2552.199951
1442.939462	2586.0
1443.464539	2573.800049
1443.989561	2565.199951
1444.514528	2551.0
1445.03944	2542.199951
1445.564297	2544.600098
1446.089099	2539.199951
1446.613846	2566.199951
1447.138537	2565.199951
1447.663174	2552.600098
1448.187756	2536.199951
1448.712282	2543.199951
1449.236754	2561.399902
1449.761171	2565.600098
1450.285532	2545.0
1450.809839	2546.399902
1451.33409	2545.600098
1451.858287	2530.800049
1452.382428	2551.0
1452.906515	2555.600098
1453.430546	2543.399902
1453.954523	2547.800049
1454.478444	2539.399902
1455.002311	2547.600098
1455.526123	2523.800049
1456.049879	2560.0
1456.573581	2554.0
1457.097227	2535.0
1457.620819	2531.399902
1458.144356	2536.199951
1458.667837	2529.800049
1459.191264	2532.600098
1459.714636	2533.600098
1460.237952	2525.600098
1460.761214	2521.800049
1461.284421	2517.600098
1461.807573	2521.0
1462.33067	2510.600098
1462.853712	2516.399902
1463.376699	2512.600098
1463.899632	2495.600098
1464.422509	2501.600098
1464.945331	2536.600098
1465.468099	2497.0
1465.990811	2509.600098
1466.513469	2508.199951
1467.036071	2494.800049
1467.558619	2513.0
1468.081112	2501.0
1468.60355	2515.199951
1469.125933	2467.199951
1469.648261	2507.0
1470.170534	2492.800049
1470.692752	2511.800049
1471.214916	2488.399902
1471.737024	2505.0
1472.259078	2495.600098
1472.781077	2472.399902
1473.303021	2479.800049
1473.82491	2484.199951
1474.346744	2485.0
1474.868523	2475.0
1475.390248	2468.600098
1475.911917	2494.0
1476.433532	2498.0
1476.955092	2508.0
1477.476597	2490.600098
1477.998047	2485.399902
1478.519442	2493.0
1479.040783	2490.0
1479.562068	2452.600098
1480.083299	2488.0
1480.604475	2470.0
1481.125596	2465.199951
1481.646663	2466.0
1482.167674	2458.0
1482.688631	2442.800049
1483.209533	2471.399902
1483.73038	2462.800049
1484.251172	2478.199951
1484.771909	2460.199951
1485.292592	2444.800049
1485.81322	2470.199951
1486.333793	2482.600098
1486.854311	2484.199951
1487.374775	2448.0
1487.895183	2448.199951
1488.415537	2430.800049
1488.935836	2463.399902
1489.456081	2452.0
1489.97627	2448.399902
1490.496405	2443.800049
1491.016485	2472.199951
1491.536511	2451.399902
1492.056481	2447.399902
1492.576397	2433.800049
1493.096258	2454.399902
1493.616064	2430.399902
1494.135816	2442.800049
1494.655513	2424.399902
1495.175155	2440.399902
1495.694742	2440.399902
1496.214274	2430.600098
1496.733752	2450.800049
1497.253175	2434.800049
1497.772544	2431.0
1498.291858	2442.399902
1498.811116	2432.199951
1499.330321	2437.0
1499.84947	2445.399902
1500.368565	2440.399902
1500.887605	2446.0
1501.406591	2426.399902
1501.925521	2423.199951
1502.444397	2412.800049
1502.963219	2431.800049
1503.481985	2407.399902
1504.000697	2417.800049
1504.519355	2405.199951
1505.037957	2432.399902
1505.556505	2429.399902
1506.074999	2408.600098
1506.593437	2423.199951
1507.111821	2404.600098
1507.63015	2401.800049
1508.148425	2409.199951
1508.666645	2409.600098
1509.18481	2423.199951
1509.702921	2404.800049
1510.220977	2394.199951
1510.738979	2416.600098
1511.256925	2420.399902
1511.774817	2395.199951
1512.292655	2398.600098
1512.810438	2414.600098
1513.328166	2417.399902
1513.84584	2395.800049
1514.363459	2408.399902
1514.881023	2400.399902
1515.398533	2398.199951
1515.915988	2389.600098
1516.433389	2388.600098
1516.950734	2414.0
1517.468026	2421.600098
1517.985263	2380.800049
1518.502445	2396.0
1519.019572	2398.600098
1519.536645	2393.399902
1520.053664	2393.399902
1520.570628	2386.199951
1521.087537	2390.199951
1521.604392	2389.800049
1522.121192	2401.199951
1522.637937	2398.399902
1523.154628	2405.199951
1523.671265	2399.600098
1524.187847	2395.0
1524.704374	2401.800049
1525.220847	2382.600098
1525.737265	2383.399902
1526.253629	2383.399902
1526.769938	2395.800049
1527.286192	2388.399902
1527.802392	2392.800049
1528.318538	2372.399902
1528.834629	2426.199951
1529.866648	2380.399902
1530.382575	2385.399902
1530.898448	2359.0
1531.414266	2402.199951
1531.93003	2382.199951
1532.44574	2385.800049
1532.961395	2384.0
1533.476995	2371.600098
1533.992541	2365.399902
1534.508033	2381.800049
1535.02347	2375.199951
1535.538852	2354.0
1536.05418	2369.0
1536.569454	2376.399902
1537.084673	2398.0
1537.599837	2374.399902
1538.114947	2343.399902
1538.630003	2379.399902
1539.145004	2393.0
1539.659951	2363.399902
1540.174843	2371.199951
1540.689681	2366.600098
1541.204465	2352.199951
1541.719194	2368.199951
1542.233868	2357.800049
1542.748488	2382.399902
1543.263054	2359.800049
1543.777565	2373.600098
1544.292022	2353.199951
1544.806424	2352.399902
1545.320772	2382.800049
1545.835066	2372.0
1546.349305	2364.600098
1546.863489	2358.800049
1547.37762	2358.0
1547.891696	2364.399902
1548.405717	2358.800049
1548.919684	2334.800049
1549.433597	2382.399902
1549.947455	2365.199951
1550.461259	2360.800049
1550.975009	2336.399902
1551.488704	2357.600098
1552.002345	2343.800049
1552.515931	2334.399902
1553.029463	2355.0
1553.542941	2350.199951
1554.056364	2373.600098
1554.569733	2347.600098
1555.083048	2360.199951
1555.596308	2350.800049
1556.109514	2344.800049
1556.622665	2346.0
1557.135762	2348.199951
1557.648805	2345.0
1558.161794	2342.199951
1558.674728	2365.399902
1559.187608	2340.800049
1559.700433	2318.800049
1560.213205	2342.399902
1560.725921	2341.0
1561.238584	2338.399902
1561.751192	2352.399902
1562.263746	2368.600098
1562.776246	2331.600098
1563.288691	2336.0
1563.801082	2345.0
1564.313419	2341.199951
1564.825701	2319.800049
1565.337929	2326.800049
1565.850103	2312.800049
1566.362223	2350.800049
1566.874288	2320.800049
1567.386299	2338.0
1567.898256	2329.399902
1568.410158	2314.399902
1568.922007	2319.600098
1569.4338	2321.399902
1569.94554	2328.199951
1570.457226	2305.800049
1570.968857	2341.199951
1571.480434	2322.800049
1571.991956	2350.0
1572.503425	2329.199951
1573.014839	2324.399902
1573.526199	2329.600098
1574.037505	2334.0
1574.548756	2321.399902
1575.059953	2322.0
1575.571096	2326.399902
1576.082185	2309.0
1576.59322	2343.399902
1577.1042	2328.800049
1577.615126	2300.800049
1578.125998	2315.199951
1578.636816	2334.199951
1579.14758	2326.399902
1579.658289	2329.0
1580.168944	2312.800049
1580.679545	2298.800049
1581.190092	2317.399902
1581.700585	2297.0
1582.211023	2337.199951
1582.721407	2314.600098
1583.231737	2318.199951
1583.742013	2284.399902
1584.252235	2292.399902
1584.762403	2300.199951
1585.272516	2328.199951
1585.782575	2312.199951
1586.292581	2308.800049
1586.802532	2315.399902
1587.312428	2269.399902
1587.822271	2294.800049
1588.33206	2319.600098
1588.841794	2311.0
1589.351474	2296.199951
1589.8611	2308.600098
1590.370672	2285.399902
1590.88019	2286.199951
1591.389654	2300.199951
1591.899064	2279.199951
1592.408419	2309.399902
