1043.018714	2481.399902
1043.585098	2497.199951
1044.151424	2487.0
1044.717692	2492.0
1045.283903	2480.199951
1045.850056	2490.399902
1046.416151	2477.399902
1046.982188	2473.199951
1047.548167	2464.600098
1048.114089	2481.800049
1048.679953	2461.199951
1049.24576	2479.800049
1049.811509	2481.600098
1050.3772	2478.399902
1050.942833	2441.399902
1051.508408	2455.0
1052.073926	2468.600098
1052.639387	2473.600098
1053.204789	2472.600098
1053.770134	2468.399902
1054.335421	2461.800049
1054.900651	2482.199951
1055.465823	2443.399902
1056.030937	2469.399902
1056.595993	2462.199951
1057.160992	2471.0
1057.725934	2423.600098
1058.290817	2459.399902
1058.855643	2466.399902
1059.420411	2449.199951
1059.985122	2451.800049
1060.549775	2428.399902
1061.114371	2450.399902
1061.678908	2441.0
1062.243389	2452.199951
1062.807811	2448.600098
1063.372176	2449.399902
1063.936483	2454.0
1064.500733	2435.199951
1065.064925	2446.199951
1065.62906	2421.0
1066.193137	2428.600098
1066.757156	2418.600098
1067.321118	2434.0
1067.885022	2426.800049
1068.448869	2422.600098
1069.012658	2409.0
1069.57639	2428.600098
1070.140063	2429.800049
1070.70368	2417.800049
1071.267239	2410.0
1071.83074	2433.0
1072.394184	2420.0
1072.95757	2413.199951
1073.520899	2405.600098
1074.08417	2410.600098
1074.647383	2396.399902
1075.21054	2434.0
1075.773638	2396.0
1076.336679	2393.0
1076.899663	2400.399902
1077.462589	2407.199951
1078.025457	2377.0
1078.588268	2409.800049
1079.151022	2378.600098
1079.713718	2396.600098
1080.276356	2362.600098
1080.838937	2402.800049
1081.401461	2378.199951
1081.963927	2386.600098
1082.526336	2400.199951
1083.088687	2406.800049
1083.650981	2382.199951
1084.213217	2377.600098
1084.775396	2385.600098
1085.337517	2370.600098
1085.899581	2365.800049
1086.461587	2372.199951
1087.023536	2379.0
1087.585428	2383.800049
1088.147262	2373.600098
1088.709039	2387.600098
1089.270758	2364.399902
1089.83242	2372.199951
1090.394024	2373.199951
1090.955571	2359.199951
1091.517061	2343.199951
1092.078493	2356.800049
1092.639868	2346.399902
1093.201185	2363.399902
1093.762445	2346.399902
1094.323648	2365.199951
1094.884793	2341.399902
1095.445881	2348.600098
1096.006911	2360.199951
1096.567884	2349.800049
1097.1288	2343.800049
1097.689659	2349.600098
1098.25046	2345.0
1098.811203	2351.600098
1099.37189	2349.0
1099.932518	2349.800049
1100.49309	2325.600098
1101.053604	2347.600098
1101.614061	2317.199951
1102.174461	2330.399902
1102.734803	2303.800049
1103.295088	2326.600098
1103.855316	2305.800049
1104.415486	2331.0
1104.975599	2285.199951
1105.535655	2325.399902
1106.095653	2295.199951
1106.655594	2325.399902
1107.215478	2300.199951
1107.775305	2308.600098
1108.335074	2294.199951
1108.894786	2315.0
1109.45444	2301.800049
1110.014038	2348.800049
1110.573578	2298.0
1111.133061	2300.399902
1111.692486	2305.399902
1112.251854	2311.399902
1112.811165	2284.399902
1113.370419	2300.600098
1113.929616	2272.0
1114.488755	2298.800049
1115.047837	2285.800049
1115.606862	2269.199951
1116.16583	2299.0
1116.72474	2301.399902
1117.283593	2256.0
1117.842389	2266.199951
1118.401128	2289.0
1118.959809	2295.399902
1119.518433	2258.199951
1120.077	2299.399902
1120.63551	2258.600098
1121.193963	2302.600098
1121.752358	2240.399902
1122.310697	2274.199951
1122.868978	2273.0
1123.427202	2262.199951
1123.985368	2249.600098
1124.543478	2273.399902
1125.10153	2267.800049
1125.659526	2288.800049
1126.217464	2258.600098
1126.775345	2262.199951
1127.333168	2266.800049
1127.890935	2251.399902
1128.448644	2244.800049
1129.006297	2278.800049
1129.563892	2238.600098
1130.12143	2236.600098
1130.678911	2239.600098
1131.236335	2271.399902
1131.793701	2247.600098
1132.351011	2275.800049
1132.908263	2243.399902
1133.465458	2250.0
1134.022597	2245.0
1134.579678	2233.800049
1135.136702	2258.0
1135.693669	2252.399902
1136.250578	2276.800049
1136.807431	2253.399902
1137.364227	2225.800049
1137.920965	2243.800049
1138.477647	2237.0
1139.034271	2229.0
1139.590839	2243.0
1140.147349	2262.800049
1140.703802	2239.600098
1141.260198	2250.800049
1141.816537	2256.199951
1142.37282	2249.0
1142.929045	2252.399902
1143.485213	2253.0
1144.041323	2217.600098
1144.597377	2244.0
1145.153374	2237.199951
1145.709314	2231.600098
1146.265197	2237.199951
1146.821023	2216.800049
1147.376792	2204.399902
1147.932503	2256.199951
1148.488158	2253.0
1149.043756	2223.800049
1149.599297	2244.199951
1150.154781	2238.800049
1150.710207	2239.0
1151.265577	2208.800049
1151.82089	2256.0
1152.376146	2239.800049
1152.931345	2248.0
1153.486487	2233.800049
1154.041572	2223.600098
1154.5966	2220.600098
1155.151571	2243.0
1155.706485	2216.800049
1156.261342	2232.399902
1156.816142	2231.199951
1157.370885	2227.0
1157.925572	2236.199951
1158.480201	2221.800049
1159.034774	2228.800049
1159.589289	2223.199951
1160.143748	2227.600098
1160.698149	2216.600098
1161.252494	2206.399902
1161.806782	2216.199951
1162.361013	2203.600098
1162.915187	2230.199951
1163.469304	2232.600098
1164.023364	2211.199951
1164.577368	2232.399902
1165.131314	2210.600098
1165.685204	2220.800049
1166.239036	2218.199951
1166.792812	2195.0
1167.346531	2229.600098
1167.900193	2225.399902
1168.453798	2222.600098
1169.007347	2202.199951
1169.560838	2208.199951
1170.114273	2217.600098
1170.66765	2205.800049
1171.220971	2203.399902
1171.774235	2212.0
1172.327443	2203.600098
1172.880593	2185.800049
1173.433687	2210.399902
1173.986723	2194.0
1174.539703	2203.199951
1175.092626	2196.600098
1175.645493	2201.800049
1176.198302	2202.800049
1176.751055	2174.199951
1177.303751	2197.199951
1177.85639	2202.800049
1178.408972	2186.0
1178.961498	2180.600098
1179.513966	2201.399902
1180.066378	2181.0
1180.618733	2189.399902
1181.171032	2187.0
1181.723273	2181.399902
1182.275458	2184.399902
1182.827586	2169.600098
1183.379657	2189.600098
1183.931672	2173.199951
1184.48363	2176.800049
1185.035531	2197.800049
1185.587375	2177.199951
1186.139162	2150.0
1186.690893	2178.600098
1187.242567	2166.399902
1187.794184	2168.399902
1188.345745	2170.399902
1188.897249	2180.399902
1189.448696	2182.399902
1190.000086	2184.0
1190.55142	2150.0
1191.102697	2178.600098
1191.653918	2158.600098
1192.205081	2142.399902
1192.756188	2158.800049
1193.307238	2162.600098
1193.858232	2154.0
1194.409169	2163.600098
1194.960049	2176.800049
1195.510872	2156.800049
1196.061639	2170.600098
1196.612349	2155.199951
1197.163003	2142.0
1197.713599	2156.199951
1198.264139	2144.0
1198.814623	2146.199951
1199.36505	2149.199951
1199.91542	2146.399902
1200.465734	2148.399902
1201.01599	2149.600098
1201.566191	2131.600098
1202.116334	2153.0
1202.666421	2136.800049
1203.216452	2150.0
1203.766425	2136.199951
1204.316343	2117.800049
1204.866203	2116.399902
1205.416007	2118.800049
1205.965754	2130.199951
1206.515445	2118.600098
1207.065079	2119.399902
1207.614657	2138.199951
1208.164177	2106.600098
1208.713642	2120.199951
1209.26305	2138.199951
1209.812401	2120.600098
1210.361695	2140.0
1210.910933	2117.800049
1211.460115	2108.399902
1212.00924	2111.800049
1212.558308	2126.199951
1213.10732	2110.0
1213.656275	2113.800049
1214.205174	2128.199951
1214.754016	2124.199951
1215.302801	2115.199951
1215.85153	2109.800049
1216.400203	2094.199951
1216.948819	2091.399902
1217.497378	2093.600098
1218.045881	2109.800049
1218.594327	2104.0
1219.142717	2107.399902
1219.691051	2114.0
1220.239327	2100.0
1220.787548	2111.399902
1221.335712	2107.399902
1221.883819	2097.199951
1222.43187	2102.600098
1222.979864	2091.199951
1223.527802	2106.199951
1224.075683	2100.199951
1224.623508	2092.0
1225.171277	2104.600098
1225.718989	2102.800049
1226.266644	2086.199951
1226.814243	2072.800049
1227.361786	2078.800049
1227.909272	2102.0
1228.456702	2073.399902
1229.004075	2085.199951
1229.551392	2074.399902
1230.098652	2090.0
1230.645856	2077.199951
1231.193003	2085.0
1231.740094	2086.0
1232.287129	2095.600098
1232.834107	2067.0
1233.381029	2092.399902
1233.927894	2067.800049
1234.474703	2093.600098
1235.021455	2042.800049
1235.568151	2078.199951
1236.114791	2062.800049
1236.661374	2071.600098
1237.207901	2074.0
1237.754372	2061.600098
1238.300786	2048.199951
1238.847144	2070.0
1239.393445	2060.800049
1239.93969	2061.0
1240.485879	2062.800049
1241.032011	2078.600098
1241.578087	2056.0
1242.124106	2049.199951
1242.67007	2070.0
1243.215976	2049.800049
1243.761827	2070.399902
1244.307621	2050.600098
1244.853359	2065.0
1245.39904	2046.400024
1245.944665	2042.800049
1246.490234	2064.399902
1247.035746	2058.199951
1247.581203	2038.599976
1248.126602	2043.0
1248.671946	2027.800049
1249.217233	2046.0
1249.762464	2034.599976
1250.307638	2048.399902
1250.852757	2051.0
1251.397819	2043.800049
1251.942824	2056.199951
1252.487774	2044.599976
1253.032667	2049.800049
1253.577503	2033.400024
1254.122284	2033.0
1254.667008	2014.400024
1255.211676	2037.400024
1255.756288	2047.800049
1256.300843	2019.0
1256.845342	2014.599976
1257.389785	2040.0
1257.934172	2013.599976
1258.478502	2046.599976
1259.022776	2008.400024
1259.566994	2045.599976
1260.111156	2036.0
1260.655261	2012.599976
1261.199311	2004.599976
1261.743304	2011.599976
1262.28724	1995.400024
1262.831121	2036.199951
1263.374945	2001.800049
1263.918713	2039.199951
1264.462425	2009.400024
1265.006081	2018.0
1265.54968	2041.199951
1266.093223	2049.800049
1266.636711	2011.199951
1267.180141	2006.400024
1267.723516	2009.800049
1268.266835	2016.599976
1268.810097	2028.199951
1269.353303	1994.400024
1269.896453	2007.400024
1270.439547	2010.400024
1270.982584	1996.199951
1271.525566	1984.599976
1272.068491	2001.0
1272.61136	1996.800049
1273.154173	2007.599976
1273.69693	2008.599976
1274.239631	1989.0
1274.782275	2016.0
1275.324864	1991.400024
1275.867396	1982.0
1276.409872	1982.199951
1276.952292	2012.599976
1277.494656	1983.800049
1278.036964	1983.400024
1278.579215	1985.400024
1279.121411	2000.0
1279.66355	2008.800049
1280.205634	1978.0
1280.747661	1987.800049
1281.289632	2001.199951
1281.831547	1969.400024
1282.373406	1993.0
1282.915209	1992.199951
1283.456955	1966.199951
1283.998646	1981.0
1284.540281	1986.599976
1285.081859	2021.199951
1285.623381	2066.600098
1286.164848	2378.0
1286.706258	2225.600098
1287.247612	2024.599976
1287.788911	1981.599976
1288.330153	1964.199951
1288.871339	1981.199951
1289.412469	1998.0
1289.953543	1956.800049
1290.494561	1970.599976
1291.035523	1968.400024
1291.576428	1961.599976
1292.117278	1951.800049
1292.658072	1964.800049
1293.19881	1957.800049
1293.739492	1968.400024
1294.280118	1956.599976
1294.820687	1957.599976
1295.361201	1949.800049
1295.901659	1962.400024
1296.442061	1963.199951
1296.982406	1953.199951
1297.522696	1947.400024
1298.06293	1944.599976
1298.603108	1949.199951
1299.143229	1947.400024
1299.683295	1941.599976
1300.223305	1952.0
1300.763259	1955.599976
1301.303157	1929.400024
1301.842999	1956.400024
1302.382785	1938.199951
1302.922515	1929.800049
1303.462189	1941.400024
1304.001807	1937.800049
1304.541369	1938.599976
1305.080875	1952.800049
1305.620326	1932.599976
1306.15972	1942.599976
1306.699058	1944.0
1307.238341	1917.599976
1307.777567	1918.0
1308.316738	1928.199951
1308.855853	1932.800049
1309.394912	1918.599976
1309.933915	1950.199951
1310.472862	1938.199951
1311.011753	1918.599976
1311.550588	1929.599976
1312.089367	1922.400024
1312.62809	1906.400024
1313.166758	1921.800049
1313.70537	1921.0
1314.243925	1923.599976
1314.782425	1910.400024
1315.320869	1906.800049
1315.859257	1890.800049
1316.397589	1899.199951
1316.935866	1910.800049
1317.474086	1899.199951
1318.012251	1917.599976
1318.55036	1918.400024
1319.088413	1910.800049
1319.62641	1898.0
1320.164351	1914.199951
1320.702236	1892.599976
1321.240066	1900.199951
1321.777839	1910.800049
1322.315557	1904.199951
1322.853219	1889.599976
1323.390826	1901.0
1323.928376	1903.599976
1324.465871	1905.800049
1325.003309	1886.800049
1325.540692	1908.800049
1326.07802	1902.199951
1326.615291	1894.199951
1327.152506	1888.400024
1327.689666	1895.599976
1328.22677	1882.599976
1328.763818	1871.199951
1329.300811	1879.599976
1329.837747	1867.199951
1330.374628	1893.800049
1330.911453	1878.0
1331.448222	1876.0
1331.984936	1886.199951
1332.521594	1891.400024
1333.058196	1875.0
1333.594742	1888.0
1334.131232	1869.599976
1334.667667	1887.199951
1335.204046	1864.800049
1335.740369	1879.800049
1336.276637	1888.199951
1336.812848	1877.0
1337.349004	1869.599976
1337.885105	1885.0
1338.421149	1874.400024
1338.957138	1859.599976
1339.493071	1863.400024
1340.028949	1879.599976
1340.56477	1875.199951
1341.100536	1881.599976
1341.636246	1864.0
1342.171901	1864.199951
1342.7075	1869.599976
1343.243043	1870.599976
1343.77853	1859.800049
1344.313962	1881.199951
1344.849338	1868.800049
1345.384659	1868.800049
1345.919923	1856.400024
1346.455133	1858.800049
1346.990286	1860.0
1347.525384	1850.800049
1348.060426	1864.800049
1348.595412	1849.400024
1349.130343	1864.0
1349.665218	1864.199951
1350.200037	1855.800049
1350.734801	1857.800049
1351.269509	1849.800049
1351.804162	1867.0
1352.338758	1862.599976
1352.8733	1843.199951
1353.407785	1835.800049
1353.942215	1846.199951
1354.476589	1845.599976
1355.010908	1851.800049
1355.545171	1833.199951
1356.079379	1841.0
1356.61353	1844.800049
1357.147627	1854.199951
1357.681667	1827.199951
1358.215652	1849.0
1358.749582	1853.599976
1359.283456	1829.800049
1359.817274	1842.599976
1360.351037	1847.599976
1360.884744	1844.199951
1361.418395	1835.400024
1361.951991	1842.0
1362.485531	1844.400024
1363.019016	1846.599976
1363.552445	1822.599976
1364.085819	1828.400024
1364.619137	1823.199951
1365.1524	1846.400024
1365.685607	1823.599976
1366.218758	1832.400024
1366.751854	1841.800049
1367.284894	1840.400024
1367.817879	1814.599976
1368.350808	1823.400024
1368.883682	1834.199951
1369.4165	1837.599976
1369.949263	1821.599976
1370.48197	1808.599976
1371.014622	1839.800049
1371.547218	1819.599976
1372.079758	1840.800049
1372.612244	1819.400024
1373.144673	1825.199951
1373.677047	1817.400024
1374.209366	1823.199951
1374.741629	1818.800049
1375.273836	1813.199951
1375.805989	1805.0
1376.338085	1833.199951
1376.870126	1803.199951
1377.402112	1810.800049
1377.934042	1818.0
1378.465917	1822.199951
1378.997736	1807.800049
1379.5295	1828.0
1380.061208	1825.800049
1380.592861	1805.0
1381.124459	1821.599976
1381.656	1817.599976
1382.187487	1817.199951
1382.718918	1798.0
1383.250294	1802.800049
1383.781614	1807.599976
1384.312879	1812.400024
1384.844088	1812.199951
1385.375242	1804.400024
1385.90634	1812.400024
1386.437383	1815.199951
1386.968371	1810.400024
1387.499303	1803.800049
1388.03018	1807.400024
1388.561001	1855.199951
1389.091767	2275.600098
1389.622478	2326.0
1390.153133	1867.0
1390.683733	1820.199951
1391.214277	1796.199951
1391.744766	1812.400024
1392.2752	1794.800049
1392.805578	1798.599976
1393.335901	1812.599976
1393.866168	1796.0
1394.396381	1803.599976
1394.926537	1799.0
1395.456639	1797.599976
1395.986685	1791.800049
1396.516675	1800.599976
1397.046611	1795.199951
1397.576491	1795.599976
1398.106315	1782.0
1398.636084	1780.400024
1399.165798	1814.800049
1399.695457	1799.599976
1400.22506	1804.199951
1400.754608	1785.400024
1401.284101	1792.599976
1401.813538	1796.599976
1402.34292	1792.0
1402.872247	1778.800049
1403.401518	1813.599976
1403.930734	1788.800049
1404.459895	1813.800049
1404.989	1798.0
1405.51805	1793.199951
1406.047045	1784.400024
1406.575984	1795.599976
1407.104869	1787.199951
1407.633697	1783.0
1408.162471	1789.0
1408.691189	1794.400024
1409.219852	1803.400024
1409.74846	1781.400024
1410.277013	1823.599976
1410.80551	1827.599976
1411.333952	1805.800049
1411.862339	1776.599976
1412.39067	1772.0
1412.918946	1772.400024
1413.447167	1778.800049
1413.975333	1783.199951
1414.503444	1780.400024
1415.031499	1786.800049
1415.559499	1798.199951
1416.087444	1768.0
1416.615333	1773.0
1417.143167	1776.800049
1417.670947	1776.400024
1418.19867	1776.599976
1418.726339	1775.400024
1419.253952	1778.599976
1419.781511	1772.599976
1420.309014	1762.0
1420.836461	1782.199951
1421.363854	1767.400024
1421.891191	1776.199951
1422.418474	1783.800049
1422.945701	1779.800049
1423.472872	1758.199951
1423.999989	1772.800049
1424.52705	1762.800049
1425.054057	1767.199951
1425.581008	1761.400024
1426.107904	1771.800049
1426.634745	1783.599976
1427.16153	1763.0
1427.688261	1766.800049
1428.214936	1756.400024
1428.741556	1777.599976
1429.268121	1762.0
1429.794631	1749.800049
1430.321085	1771.199951
1430.847485	1752.0
1431.373829	1758.199951
1431.900118	1757.199951
1432.426353	1759.400024
1432.952532	1760.800049
1433.478655	1762.0
1434.004724	1776.199951
1434.530738	1759.599976
1435.056696	1775.400024
1435.5826	1760.599976
1436.108448	1769.800049
1436.634241	1752.0
1437.159979	1767.400024
1437.685662	1756.400024
1438.21129	1749.0
1438.736863	1751.0
1439.262381	1752.0
1439.787843	1742.599976
1440.313251	1748.800049
1440.838603	1765.400024
1441.3639	1757.800049
1441.889143	1745.0
1442.41433	1748.599976
1442.939462	1740.0
1443.464539	1748.0
1443.989561	1741.199951
1444.514528	1756.599976
1445.03944	1746.0
1445.564297	1752.599976
1446.089099	1747.199951
1446.613846	1749.800049
1447.138537	1743.400024
1447.663174	1727.400024
1448.187756	1747.199951
1448.712282	1737.199951
1449.236754	1753.0
1449.761171	1752.800049
1450.285532	1754.0
1450.809839	1749.199951
1451.33409	1756.800049
1451.858287	1733.0
1452.382428	1739.400024
1452.906515	1728.199951
1453.430546	1748.199951
1453.954523	1761.400024
1454.478444	1754.199951
1455.002311	1746.400024
1455.526123	1723.199951
1456.049879	1752.199951
1456.573581	1741.199951
1457.097227	1730.800049
1457.620819	1723.0
1458.144356	1752.800049
1458.667837	1714.199951
1459.191264	1723.0
1459.714636	1741.400024
1460.237952	1732.400024
1460.761214	1719.0
1461.284421	1748.599976
1461.807573	1733.400024
1462.33067	1736.199951
1462.853712	1722.800049
1463.376699	1739.599976
1463.899632	1732.199951
1464.422509	1726.800049
1464.945331	1719.400024
1465.468099	1721.800049
1465.990811	1741.0
1466.513469	1725.199951
1467.036071	1727.800049
1467.558619	1733.800049
1468.081112	1737.800049
1468.60355	1722.599976
1469.125933	1727.400024
1469.648261	1731.0
1470.170534	1728.0
1470.692752	1715.0
1471.214916	1722.0
1471.737024	1721.0
1472.259078	1703.0
1472.781077	1710.599976
1473.303021	1712.800049
1473.82491	1712.599976
1474.346744	1716.0
1474.868523	1714.400024
1475.390248	1721.400024
1475.911917	1716.199951
1476.433532	1703.0
1476.955092	1710.599976
1477.476597	1699.400024
1477.998047	1709.599976
1478.519442	1730.199951
1479.040783	1705.0
1479.562068	1699.0
1480.083299	1708.199951
1480.604475	1724.599976
1481.125596	1696.599976
1481.646663	1716.800049
1482.167674	1713.199951
1482.688631	1694.199951
1483.209533	1708.599976
1483.73038	1695.800049
1484.251172	1735.599976
1484.771909	1713.599976
1485.292592	1694.199951
1485.81322	1716.400024
1486.333793	1691.800049
1486.854311	1693.599976
1487.374775	1705.400024
1487.895183	1678.400024
1488.415537	1697.800049
1488.935836	1700.199951
1489.456081	1709.199951
1489.97627	1686.599976
1490.496405	1690.199951
1491.016485	1708.599976
1491.536511	1690.400024
1492.056481	1711.800049
1492.576397	1689.400024
1493.096258	1702.800049
1493.616064	1695.599976
1494.135816	1695.0
1494.655513	1689.800049
1495.175155	1703.400024
1495.694742	1704.400024
1496.214274	1677.400024
1496.733752	1686.0
1497.253175	1707.0
1497.772544	1681.599976
1498.291858	1694.599976
1498.811116	1701.800049
1499.330321	1686.400024
1499.84947	1710.800049
1500.368565	1702.400024
1500.887605	1694.400024
1501.406591	1689.0
1501.925521	1708.800049
1502.444397	1691.400024
1502.963219	1689.800049
1503.481985	1687.0
1504.000697	1671.0
1504.519355	1686.400024
1505.037957	1685.599976
1505.556505	1683.400024
1506.074999	1684.599976
1506.593437	1684.800049
1507.111821	1686.199951
1507.63015	1664.800049
1508.148425	1684.400024
1508.666645	1685.199951
1509.18481	1688.400024
1509.702921	1677.0
1510.220977	1683.800049
1510.738979	1682.0
1511.256925	1673.0
1511.774817	1679.199951
1512.292655	1671.199951
1512.810438	1673.400024
1513.328166	1681.0
1513.84584	1687.599976
1514.363459	1675.0
1514.881023	1673.599976
1515.398533	1675.199951
1515.915988	1671.599976
1516.433389	1683.400024
1516.950734	1675.199951
1517.468026	1680.400024
1517.985263	1687.800049
1518.502445	1681.400024
1519.019572	1684.0
1519.536645	1675.0
1520.053664	1678.199951
1520.570628	1674.400024
1521.087537	1675.400024
1521.604392	1668.400024
1522.121192	1670.800049
1522.637937	1674.0
1523.154628	1677.400024
1523.671265	1661.800049
1524.187847	1666.0
1524.704374	1681.599976
1525.220847	1665.599976
1525.737265	1672.599976
1526.253629	1662.400024
1526.769938	1685.599976
1527.286192	1662.599976
1527.802392	1677.400024
1528.318538	1665.199951
1528.834629	1675.599976
1529.350666	1677.400024
1529.866648	1677.800049
1530.382575	1674.800049
1530.898448	1663.199951
1531.414266	1680.199951
1531.93003	1669.0
1532.44574	1678.400024
1532.961395	1674.599976
1533.476995	1672.0
1533.992541	1662.599976
1534.508033	1659.0
1535.02347	1660.800049
1535.538852	1652.0
1536.05418	1678.0
1536.569454	1656.400024
1537.084673	1654.400024
1537.599837	1663.800049
1538.114947	1665.599976
1538.630003	1666.0
1539.145004	1660.400024
1539.659951	1646.400024
1540.174843	1654.400024
1540.689681	1675.199951
1541.204465	1672.0
1541.719194	1655.599976
1542.233868	1661.599976
1542.748488	1672.599976
1543.263054	1670.800049
1543.777565	1682.800049
1544.292022	1673.199951
1544.806424	1673.800049
1545.320772	1637.199951
1545.835066	1666.199951
1546.349305	1674.0
1546.863489	1667.199951
1547.37762	1663.400024
1547.891696	1672.800049
1548.405717	1678.199951
1548.919684	1633.400024
1549.433597	1677.199951
1549.947455	1668.599976
1550.461259	1652.800049
1550.975009	1656.400024
1551.488704	1672.0
1552.002345	1656.599976
1552.515931	1656.599976
1553.029463	1659.199951
1553.542941	1655.800049
1554.056364	1668.599976
1554.569733	1651.599976
1555.083048	1658.0
1555.596308	1640.800049
1556.109514	1650.199951
1556.622665	1681.800049
1557.135762	1647.599976
1557.648805	1651.800049
1558.161794	1665.0
1558.674728	1654.400024
1559.187608	1652.599976
1559.700433	1643.599976
1560.213205	1641.0
1560.725921	1666.0
1561.238584	1648.599976
1561.751192	1650.400024
1562.263746	1656.800049
1562.776246	1672.800049
1563.288691	1637.199951
1563.801082	1646.199951
1564.313419	1650.199951
1564.825701	1646.199951
1565.337929	1661.199951
1565.850103	1645.400024
1566.362223	1645.199951
1566.874288	1629.599976
1567.386299	1650.800049
1567.898256	1652.199951
1568.410158	1658.0
1568.922007	1640.400024
1569.4338	1644.400024
1569.94554	1636.800049
1570.457226	1635.400024
1570.968857	1640.599976
1571.480434	1647.199951
1571.991956	1648.199951
1572.503425	1641.0
1573.014839	1640.800049
1573.526199	1650.800049
1574.037505	1644.199951
1574.548756	1651.199951
1575.059953	1640.599976
1575.571096	1650.800049
1576.082185	1631.199951
1576.59322	1631.800049
1577.1042	1640.199951
1577.615126	1644.199951
1578.125998	1627.400024
1578.636816	1644.599976
1579.14758	1646.0
1579.658289	1635.400024
1580.168944	1652.800049
1580.679545	1638.199951
1581.190092	1632.400024
1581.700585	1631.400024
1582.211023	1644.199951
1582.721407	1623.400024
1583.231737	1648.400024
1583.742013	1621.400024
1584.252235	1625.599976
1584.762403	1631.599976
1585.272516	1636.599976
1585.782575	1627.599976
1586.292581	1630.400024
1586.802532	1642.599976
1587.312428	1628.599976
1587.822271	1636.0
1588.33206	1635.199951
1588.841794	1640.199951
1589.351474	1624.800049
1589.8611	1638.199951
1590.370672	1636.599976
1590.88019	1621.0
1591.389654	1635.0
1591.899064	1633.0
1592.408419	1630.599976
