1043.018714	885.7999878
1043.585098	898.0
1044.151424	890.2000122
1044.717692	885.7999878
1045.283903	889.7999878
1045.850056	888.0
1046.416151	885.5999756
1046.982188	883.0
1047.548167	880.4000244
1048.114089	881.4000244
1048.679953	881.7999878
1049.24576	881.2000122
1049.811509	882.0
1050.3772	879.4000244
1050.942833	876.2000122
1051.508408	873.2000122
1052.073926	876.4000244
1052.639387	879.7999878
1053.204789	879.7999878
1053.770134	867.7999878
1054.335421	867.5999756
1054.900651	868.5999756
1055.465823	872.5999756
1056.030937	875.0
1056.595993	868.2000122
1057.160992	871.5999756
1057.725934	877.0
1058.290817	874.2000122
1058.855643	863.4000244
1059.420411	870.2000122
1059.985122	865.7999878
1060.549775	872.0
1061.114371	871.4000244
1061.678908	871.7999878
1062.243389	868.4000244
1062.807811	871.2000122
1063.372176	871.5999756
1063.936483	863.5999756
1064.500733	867.0
1065.064925	865.5999756
1065.62906	867.0
1066.193137	872.0
1066.757156	866.5999756
1067.321118	862.5999756
1067.885022	867.4000244
1068.448869	869.5999756
1069.012658	859.0
1069.57639	865.2000122
1070.140063	869.7999878
1070.70368	868.2000122
1071.267239	856.7999878
1071.83074	867.7999878
1072.394184	864.2000122
1072.95757	856.0
1073.520899	857.4000244
1074.08417	861.5999756
1074.647383	865.7999878
1075.21054	864.5999756
1075.773638	860.5999756
1076.336679	862.7999878
1076.899663	863.4000244
1077.462589	865.5999756
1078.025457	868.0
1078.588268	871.4000244
1079.151022	867.2000122
1079.713718	864.4000244
1080.276356	861.7999878
1080.838937	858.0
1081.401461	860.5999756
1081.963927	862.2000122
1082.526336	865.7999878
1083.088687	858.7999878
1083.650981	857.7999878
1084.213217	864.7999878
1084.775396	858.7999878
1085.337517	863.4000244
1085.899581	850.5999756
1086.461587	861.2000122
1087.023536	856.2000122
1087.585428	866.4000244
1088.147262	860.7999878
1088.709039	859.0
1089.270758	859.2000122
1089.83242	856.0
1090.394024	860.4000244
1090.955571	858.0
1091.517061	859.2000122
1092.078493	856.5999756
1092.639868	855.5999756
1093.201185	860.0
1093.762445	858.7999878
1094.323648	860.2000122
1094.884793	855.4000244
1095.445881	848.2000122
1096.006911	855.0
1096.567884	854.7999878
1097.1288	859.2000122
1097.689659	855.0
1098.25046	853.4000244
1098.811203	854.0
1099.37189	849.4000244
1099.932518	848.2000122
1100.49309	851.2000122
1101.053604	858.2000122
1101.614061	851.2000122
1102.174461	851.5999756
1102.734803	857.5999756
1103.295088	853.5999756
1103.855316	855.0
1104.415486	850.2000122
1104.975599	855.0
1105.535655	849.0
1106.095653	858.0
1106.655594	857.0
1107.215478	854.7999878
1107.775305	851.0
1108.335074	847.2000122
1108.894786	851.5999756
1109.45444	847.7999878
1110.014038	854.0
1110.573578	849.5999756
1111.133061	851.4000244
1111.692486	854.7999878
1112.251854	850.7999878
1112.811165	845.0
1113.370419	850.5999756
1113.929616	850.7999878
1114.488755	856.2000122
1115.047837	852.0
1115.606862	849.2000122
1116.16583	852.7999878
1116.72474	858.4000244
1117.283593	858.0
1117.842389	842.7999878
1118.401128	853.5999756
1118.959809	846.0
1119.518433	851.5999756
1120.077	849.0
1120.63551	848.2000122
1121.193963	851.4000244
1121.752358	848.4000244
1122.310697	848.7999878
1122.868978	849.2000122
1123.427202	850.4000244
1123.985368	849.0
1124.543478	848.2000122
1125.10153	854.5999756
1125.659526	847.7999878
1126.217464	854.7999878
1126.775345	849.2000122
1127.333168	845.2000122
1127.890935	855.0
1128.448644	851.2000122
1129.006297	846.2000122
1129.563892	841.7999878
1130.12143	852.7999878
1130.678911	844.0
1131.236335	850.5999756
1131.793701	845.2000122
1132.351011	854.4000244
1132.908263	844.4000244
1133.465458	846.0
1134.022597	845.2000122
1134.579678	846.0
1135.136702	851.0
1135.693669	840.0
1136.250578	848.5999756
1136.807431	842.4000244
1137.364227	844.7999878
1137.920965	849.0
1138.477647	841.7999878
1139.034271	850.7999878
1139.590839	853.0
1140.147349	843.5999756
1140.703802	845.5999756
1141.260198	850.5999756
1141.816537	849.2000122
1142.37282	847.5999756
1142.929045	849.7999878
1143.485213	853.0
1144.041323	839.4000244
1144.597377	849.4000244
1145.153374	844.5999756
1145.709314	844.4000244
1146.265197	847.7999878
1146.821023	848.4000244
1147.376792	850.0
1147.932503	846.2000122
1148.488158	852.7999878
1149.043756	843.7999878
1149.599297	839.2000122
1150.154781	848.0
1150.710207	847.0
1151.265577	849.5999756
1151.82089	849.5999756
1152.376146	846.7999878
1152.931345	839.5999756
1153.486487	852.0
1154.041572	843.5999756
1154.5966	842.7999878
1155.151571	845.5999756
1155.706485	847.5999756
1156.261342	845.7999878
1156.816142	843.7999878
1157.370885	843.5999756
1157.925572	847.4000244
1158.480201	846.7999878
1159.034774	847.4000244
1159.589289	849.0
1160.143748	844.0
1160.698149	849.0
1161.252494	844.4000244
1161.806782	842.7999878
1162.361013	840.5999756
1162.915187	846.4000244
1163.469304	843.7999878
1164.023364	842.2000122
1164.577368	837.7999878
1165.131314	846.4000244
1165.685204	844.4000244
1166.239036	847.7999878
1166.792812	837.2000122
1167.346531	838.2000122
1167.900193	848.7999878
1168.453798	847.4000244
1169.007347	846.5999756
1169.560838	841.0
1170.114273	849.4000244
1170.66765	849.7999878
1171.220971	845.4000244
1171.774235	843.0
1172.327443	847.0
1172.880593	837.7999878
1173.433687	838.4000244
1173.986723	836.2000122
1174.539703	843.2000122
1175.092626	843.7999878
1175.645493	841.0
1176.198302	833.5999756
1176.751055	847.0
1177.303751	850.4000244
1177.85639	843.0
1178.408972	844.2000122
1178.961498	844.5999756
1179.513966	843.7999878
1180.066378	841.5999756
1180.618733	838.4000244
1181.171032	845.2000122
1181.723273	844.2000122
1182.275458	841.2000122
1182.827586	837.7999878
1183.379657	844.0
1183.931672	840.7999878
1184.48363	843.4000244
1185.035531	839.4000244
1185.587375	847.0
1186.139162	841.4000244
1186.690893	847.5999756
1187.242567	837.5999756
1187.794184	840.0
1188.345745	839.5999756
1188.897249	838.2000122
1189.448696	837.7999878
1190.000086	853.2000122
1190.55142	838.0
1191.102697	835.2000122
1191.653918	844.0
1192.205081	834.7999878
1192.756188	842.7999878
1193.307238	854.0
1193.858232	840.0
1194.409169	840.7999878
1194.960049	845.0
1195.510872	838.5999756
1196.061639	846.5999756
1196.612349	839.7999878
1197.163003	842.2000122
1197.713599	837.7999878
1198.264139	836.7999878
1198.814623	843.7999878
1199.36505	841.2000122
1199.91542	833.4000244
1200.465734	841.0
1201.01599	841.0
1201.566191	834.2000122
1202.116334	839.0
1202.666421	840.2000122
1203.216452	826.5999756
1203.766425	836.4000244
1204.316343	841.0
1204.866203	833.7999878
1205.416007	837.7999878
1205.965754	845.4000244
1206.515445	839.5999756
1207.065079	842.0
1207.614657	834.0
1208.164177	841.7999878
1208.713642	835.5999756
1209.26305	844.0
1209.812401	840.4000244
1210.361695	840.5999756
1210.910933	838.5999756
1211.460115	846.0
1212.00924	846.4000244
1212.558308	831.0
1213.10732	842.7999878
1213.656275	835.4000244
1214.205174	839.0
1214.754016	836.4000244
1215.302801	842.7999878
1215.85153	839.4000244
1216.400203	837.2000122
1216.948819	836.2000122
1217.497378	836.2000122
1218.045881	838.4000244
1218.594327	836.4000244
1219.142717	842.7999878
1219.691051	833.5999756
1220.239327	844.5999756
1220.787548	838.0
1221.335712	840.2000122
1221.883819	832.5999756
1222.43187	834.7999878
1222.979864	842.5999756
1223.527802	841.0
1224.075683	833.5999756
1224.623508	835.0
1225.171277	833.5999756
1225.718989	835.7999878
1226.266644	832.2000122
1226.814243	832.2000122
1227.361786	834.4000244
1227.909272	828.2000122
1228.456702	832.2000122
1229.004075	833.2000122
1229.551392	838.4000244
1230.098652	832.4000244
1230.645856	840.2000122
1231.193003	837.4000244
1231.740094	833.5999756
1232.287129	832.7999878
1232.834107	838.0
1233.381029	828.2000122
1233.927894	840.2000122
1234.474703	833.0
1235.021455	836.5999756
1235.568151	834.5999756
1236.114791	836.0
1236.661374	834.4000244
1237.207901	835.4000244
1237.754372	834.2000122
1238.300786	830.7999878
1238.847144	835.2000122
1239.393445	830.5999756
1239.93969	829.7999878
1240.485879	837.7999878
1241.032011	828.5999756
1241.578087	838.4000244
1242.124106	833.4000244
1242.67007	831.0
1243.215976	830.7999878
1243.761827	830.7999878
1244.307621	832.4000244
1244.853359	828.2000122
1245.39904	826.7999878
1245.944665	830.4000244
1246.490234	832.4000244
1247.035746	834.2000122
1247.581203	836.5999756
1248.126602	830.2000122
1248.671946	839.0
1249.217233	829.2000122
1249.762464	826.4000244
1250.307638	832.4000244
1250.852757	833.7999878
1251.397819	832.2000122
1251.942824	829.7999878
1252.487774	832.2000122
1253.032667	832.5999756
1253.577503	825.2000122
1254.122284	827.5999756
1254.667008	834.7999878
1255.211676	832.4000244
1255.756288	824.7999878
1256.300843	825.0
1256.845342	827.0
1257.389785	826.2000122
1257.934172	826.7999878
1258.478502	827.4000244
1259.022776	828.2000122
1259.566994	822.0
1260.111156	829.5999756
1260.655261	831.7999878
1261.199311	830.0
1261.743304	830.2000122
1262.28724	828.2000122
1262.831121	826.4000244
1263.374945	828.4000244
1263.918713	828.0
1264.462425	825.0
1265.006081	828.7999878
1265.54968	828.4000244
1266.093223	830.0
1266.636711	833.0
1267.180141	826.5999756
1267.723516	830.5999756
1268.266835	827.5999756
1268.810097	831.0
1269.353303	825.5999756
1269.896453	824.2000122
1270.439547	824.0
1270.982584	826.2000122
1271.525566	829.2000122
1272.068491	831.2000122
1272.61136	835.4000244
1273.154173	823.0
1273.69693	826.0
1274.239631	831.2000122
1274.782275	829.5999756
1275.324864	822.7999878
1275.867396	830.2000122
1276.409872	826.4000244
1276.952292	820.7999878
1277.494656	830.7999878
1278.036964	826.5999756
1278.579215	823.5999756
1279.121411	828.7999878
1279.66355	828.5999756
1280.205634	826.0
1280.747661	825.0
1281.289632	818.7999878
1281.831547	820.7999878
1282.373406	826.4000244
1282.915209	833.4000244
1283.456955	829.0
1283.998646	824.2000122
1284.540281	824.2000122
1285.081859	834.2000122
1285.623381	832.7999878
1286.164848	856.4000244
1286.706258	870.2000122
1287.247612	832.7999878
1287.788911	830.5999756
1288.330153	829.4000244
1288.871339	825.0
1289.412469	828.7999878
1289.953543	816.2000122
1290.494561	824.2000122
1291.035523	825.2000122
1291.576428	823.5999756
1292.117278	830.4000244
1292.658072	822.4000244
1293.19881	824.2000122
1293.739492	827.0
1294.280118	826.2000122
1294.820687	820.4000244
1295.361201	826.5999756
1295.901659	826.4000244
1296.442061	829.2000122
1296.982406	826.7999878
1297.522696	823.0
1298.06293	822.7999878
1298.603108	818.2000122
1299.143229	818.5999756
1299.683295	826.7999878
1300.223305	820.0
1300.763259	827.4000244
1301.303157	819.4000244
1301.842999	820.4000244
1302.382785	819.2000122
1302.922515	824.0
1303.462189	824.0
1304.001807	827.0
1304.541369	819.7999878
1305.080875	828.7999878
1305.620326	825.0
1306.15972	820.2000122
1306.699058	826.2000122
1307.238341	823.4000244
1307.777567	822.5999756
1308.316738	820.0
1308.855853	824.2000122
1309.394912	824.5999756
1309.933915	815.0
1310.472862	827.5999756
1311.011753	817.5999756
1311.550588	812.2000122
1312.089367	817.7999878
1312.62809	817.5999756
1313.166758	818.7999878
1313.70537	818.4000244
1314.243925	822.2000122
1314.782425	816.2000122
1315.320869	815.2000122
1315.859257	814.0
1316.397589	823.2000122
1316.935866	825.7999878
1317.474086	822.0
1318.012251	822.2000122
1318.55036	818.4000244
1319.088413	827.4000244
1319.62641	818.5999756
1320.164351	825.7999878
1320.702236	817.5999756
1321.240066	828.5999756
1321.777839	817.5999756
1322.315557	824.7999878
1322.853219	819.2000122
1323.390826	820.7999878
1323.928376	819.5999756
1324.465871	815.2000122
1325.003309	818.7999878
1325.540692	818.5999756
1326.07802	820.0
1326.615291	821.5999756
1327.152506	820.5999756
1327.689666	819.5999756
1328.22677	813.0
1328.763818	823.2000122
1329.300811	821.2000122
1329.837747	814.7999878
1330.374628	812.4000244
1330.911453	822.4000244
1331.448222	820.4000244
1331.984936	819.7999878
1332.521594	821.2000122
1333.058196	823.5999756
1333.594742	815.7999878
1334.131232	815.0
1334.667667	815.4000244
1335.204046	817.7999878
1335.740369	816.7999878
1336.276637	814.4000244
1336.812848	824.0
1337.349004	820.4000244
1337.885105	818.7999878
1338.421149	820.4000244
1338.957138	819.0
1339.493071	812.5999756
1340.028949	816.7999878
1340.56477	819.7999878
1341.100536	820.0
1341.636246	816.7999878
1342.171901	821.7999878
1342.7075	812.4000244
1343.243043	819.5999756
1343.77853	809.5999756
1344.313962	818.0
1344.849338	816.7999878
1345.384659	812.0
1345.919923	822.2000122
1346.455133	817.2000122
1346.990286	811.0
1347.525384	809.2000122
1348.060426	816.7999878
1348.595412	820.0
1349.130343	816.5999756
1349.665218	820.7999878
1350.200037	818.2000122
1350.734801	818.0
1351.269509	819.2000122
1351.804162	809.7999878
1352.338758	815.0
1352.8733	826.4000244
1353.407785	817.7999878
1353.942215	817.4000244
1354.476589	809.4000244
1355.010908	814.0
1355.545171	819.2000122
1356.079379	816.5999756
1356.61353	820.0
1357.147627	820.5999756
1357.681667	805.7999878
1358.215652	817.4000244
1358.749582	810.5999756
1359.283456	813.4000244
1359.817274	813.7999878
1360.351037	813.5999756
1360.884744	812.5999756
1361.418395	810.7999878
1361.951991	814.2000122
1362.485531	813.7999878
1363.019016	820.0
1363.552445	811.7999878
1364.085819	818.7999878
1364.619137	810.7999878
1365.1524	815.2000122
1365.685607	820.2000122
1366.218758	811.0
1366.751854	814.0
1367.284894	814.2000122
1367.817879	819.4000244
1368.350808	814.5999756
1368.883682	814.7999878
1369.4165	811.7999878
1369.949263	821.5999756
1370.48197	821.2000122
1371.014622	820.7999878
1371.547218	820.0
1372.079758	820.5999756
1372.612244	815.4000244
1373.144673	811.4000244
1373.677047	816.0
1374.209366	808.0
1374.741629	811.0
1375.273836	813.4000244
1375.805989	809.5999756
1376.338085	822.2000122
1376.870126	814.2000122
1377.402112	813.5999756
1377.934042	810.0
1378.465917	810.5999756
1378.997736	807.4000244
1379.5295	810.2000122
1380.061208	807.7999878
1380.592861	807.2000122
1381.124459	813.5999756
1381.656	814.7999878
1382.187487	814.2000122
1382.718918	809.7999878
1383.250294	805.5999756
1383.781614	806.7999878
1384.312879	816.2000122
1384.844088	813.7999878
1385.375242	807.0
1385.90634	817.7999878
1386.437383	820.2000122
1386.968371	811.4000244
1387.499303	821.0
1388.03018	814.4000244
1388.561001	814.4000244
1389.091767	853.5999756
1389.622478	888.2000122
1390.153133	820.4000244
1390.683733	811.7999878
1391.214277	811.7999878
1391.744766	805.5999756
1392.2752	816.7999878
1392.805578	808.7999878
1393.335901	814.7999878
1393.866168	811.4000244
1394.396381	818.5999756
1394.926537	812.7999878
1395.456639	808.5999756
1395.986685	811.0
1396.516675	810.5999756
1397.046611	812.5999756
1397.576491	820.5999756
1398.106315	813.5999756
1398.636084	815.0
1399.165798	813.7999878
1399.695457	808.5999756
1400.22506	812.7999878
1400.754608	810.2000122
1401.284101	813.5999756
1401.813538	816.7999878
1402.34292	818.7999878
1402.872247	804.4000244
1403.401518	817.0
1403.930734	815.7999878
1404.459895	809.2000122
1404.989	807.2000122
1405.51805	802.0
1406.047045	807.2000122
1406.575984	813.7999878
1407.104869	814.7999878
1407.633697	812.2000122
1408.162471	815.5999756
1408.691189	807.5999756
1409.219852	808.2000122
1409.74846	812.5999756
1410.277013	811.5999756
1410.80551	822.5999756
1411.333952	810.0
1411.862339	810.7999878
1412.39067	809.0
1412.918946	809.5999756
1413.447167	809.4000244
1413.975333	804.4000244
1414.503444	808.4000244
1415.031499	813.7999878
1415.559499	813.0
1416.087444	818.0
1416.615333	805.0
1417.143167	811.0
1417.670947	806.2000122
1418.19867	809.7999878
1418.726339	810.5999756
1419.253952	814.7999878
1419.781511	811.5999756
1420.309014	813.2000122
1420.836461	809.2000122
1421.363854	813.7999878
1421.891191	810.5999756
1422.418474	804.0
1422.945701	813.2000122
1423.472872	812.5999756
1423.999989	814.0
1424.52705	811.2000122
1425.054057	811.0
1425.581008	807.2000122
1426.107904	813.5999756
1426.634745	807.2000122
1427.16153	810.4000244
1427.688261	808.4000244
1428.214936	811.7999878
1428.741556	810.7999878
1429.268121	813.0
1429.794631	809.4000244
1430.321085	811.7999878
1430.847485	811.2000122
1431.373829	810.0
1431.900118	809.5999756
1432.426353	811.2000122
1432.952532	811.0
1433.478655	813.0
1434.004724	812.5999756
1434.530738	810.0
1435.056696	804.7999878
1435.5826	808.5999756
1436.108448	811.7999878
1436.634241	803.7999878
1437.159979	812.2000122
1437.685662	811.5999756
1438.21129	807.4000244
1438.736863	810.5999756
1439.262381	803.7999878
1439.787843	802.7999878
1440.313251	809.5999756
1440.838603	807.4000244
1441.3639	810.0
1441.889143	810.4000244
1442.41433	807.5999756
1442.939462	807.2000122
1443.464539	811.0
1443.989561	806.5999756
1444.514528	811.4000244
1445.03944	808.7999878
1445.564297	808.2000122
1446.089099	802.5999756
1446.613846	815.4000244
1447.138537	810.0
1447.663174	811.0
1448.187756	809.4000244
1448.712282	806.7999878
1449.236754	805.4000244
1449.761171	811.4000244
1450.285532	808.7999878
1450.809839	813.5999756
1451.33409	803.7999878
1451.858287	808.5999756
1452.382428	807.4000244
1452.906515	809.0
1453.430546	810.4000244
1453.954523	799.7999878
1454.478444	812.4000244
1455.002311	808.5999756
1455.526123	813.0
1456.049879	803.2000122
1456.573581	810.0
1457.097227	808.2000122
1457.620819	802.4000244
1458.144356	804.4000244
1458.667837	800.4000244
1459.191264	807.0
1459.714636	806.2000122
1460.237952	805.7999878
1460.761214	817.0
1461.284421	803.7999878
1461.807573	807.0
1462.33067	804.2000122
1462.853712	810.2000122
1463.376699	810.0
1463.899632	810.2000122
1464.422509	805.4000244
1464.945331	803.7999878
1465.468099	810.0
1465.990811	811.7999878
1466.513469	804.2000122
1467.036071	806.0
1467.558619	808.5999756
1468.081112	804.2000122
1468.60355	800.5999756
1469.125933	807.7999878
1469.648261	804.7999878
1470.170534	809.2000122
1470.692752	805.5999756
1471.214916	801.4000244
1471.737024	805.7999878
1472.259078	806.7999878
1472.781077	806.4000244
1473.303021	800.4000244
1473.82491	805.7999878
1474.346744	803.4000244
1474.868523	800.5999756
1475.390248	804.2000122
1475.911917	805.5999756
1476.433532	802.2000122
1476.955092	799.2000122
1477.476597	805.0
1477.998047	807.5999756
1478.519442	800.2000122
1479.040783	806.5999756
1479.562068	802.0
1480.083299	798.5999756
1480.604475	801.2000122
1481.125596	804.4000244
1481.646663	802.7999878
1482.167674	810.4000244
1482.688631	806.5999756
1483.209533	806.4000244
1483.73038	805.2000122
1484.251172	807.5999756
1484.771909	801.4000244
1485.292592	802.5999756
1485.81322	806.7999878
1486.333793	799.4000244
1486.854311	805.2000122
1487.374775	799.4000244
1487.895183	807.0
1488.415537	802.0
1488.935836	800.7999878
1489.456081	805.7999878
1489.97627	802.4000244
1490.496405	799.2000122
1491.016485	800.5999756
1491.536511	800.5999756
1492.056481	801.4000244
1492.576397	796.4000244
1493.096258	802.4000244
1493.616064	799.0
1494.135816	799.2000122
1494.655513	801.7999878
1495.175155	804.4000244
1495.694742	799.4000244
1496.214274	800.5999756
1496.733752	803.7999878
1497.253175	802.0
1497.772544	800.7999878
1498.291858	798.5999756
1498.811116	805.5999756
1499.330321	801.5999756
1499.84947	811.5999756
1500.368565	802.5999756
1500.887605	799.7999878
1501.406591	800.7999878
1501.925521	802.5999756
1502.444397	800.0
1502.963219	805.5999756
1503.481985	805.2000122
1504.000697	794.7999878
1504.519355	803.0
1505.037957	798.4000244
1505.556505	805.4000244
1506.074999	800.7999878
1506.593437	797.4000244
1507.111821	796.2000122
1507.63015	806.7999878
1508.148425	807.5999756
1508.666645	798.7999878
1509.18481	798.4000244
1509.702921	798.4000244
1510.220977	806.4000244
1510.738979	804.2000122
1511.256925	806.7999878
1511.774817	798.0
1512.292655	798.2000122
1512.810438	797.5999756
1513.328166	807.0
1513.84584	801.4000244
1514.363459	803.7999878
1514.881023	800.4000244
1515.398533	804.4000244
1515.915988	795.5999756
1516.433389	800.5999756
1516.950734	802.4000244
1517.468026	803.7999878
1517.985263	802.2000122
1518.502445	803.4000244
1519.019572	800.5999756
1519.536645	800.2000122
1520.053664	800.0
1520.570628	800.5999756
1521.087537	797.7999878
1521.604392	802.0
1522.121192	798.7999878
1522.637937	799.5999756
1523.154628	791.5999756
1523.671265	806.2000122
1524.187847	795.4000244
1524.704374	802.2000122
1525.220847	800.0
1525.737265	802.0
1526.253629	802.4000244
1526.769938	795.7999878
1527.286192	799.4000244
1527.802392	803.4000244
1528.318538	798.7999878
1528.834629	798.4000244
1529.350666	795.4000244
1529.866648	795.7999878
1530.382575	800.0
1530.898448	802.2000122
1531.414266	805.0
1531.93003	798.2000122
1532.44574	800.4000244
1532.961395	804.0
1533.476995	800.0
1533.992541	800.2000122
1534.508033	792.7999878
1535.02347	813.2000122
1536.05418	795.5999756
1536.569454	796.4000244
1537.084673	799.7999878
1537.599837	799.4000244
1538.114947	798.7999878
1538.630003	808.7999878
1539.145004	799.4000244
1539.659951	802.5999756
1540.174843	795.4000244
1540.689681	795.5999756
1541.204465	796.2000122
1541.719194	801.5999756
1542.233868	789.4000244
1542.748488	803.2000122
1543.263054	802.7999878
1543.777565	791.2000122
1544.292022	795.5999756
1544.806424	799.7999878
1545.320772	792.4000244
1545.835066	797.4000244
1546.349305	802.5999756
1546.863489	794.7999878
1547.37762	797.7999878
1547.891696	806.0
1548.405717	804.2000122
1548.919684	795.4000244
1549.433597	793.5999756
1549.947455	801.7999878
1550.461259	805.7999878
1550.975009	798.4000244
1551.488704	795.0
1552.002345	790.5999756
1552.515931	795.2000122
1553.029463	795.7999878
1553.542941	799.0
1554.056364	803.0
1554.569733	791.4000244
1555.083048	798.7999878
1555.596308	800.5999756
1556.109514	796.4000244
1556.622665	794.4000244
1557.135762	792.7999878
1557.648805	801.2000122
1558.161794	796.2000122
1558.674728	797.5999756
1559.187608	800.2000122
1559.700433	802.4000244
1560.213205	797.4000244
1560.725921	789.2000122
1561.238584	799.5999756
1561.751192	803.0
1562.263746	798.2000122
1562.776246	793.5999756
1563.288691	798.7999878
1563.801082	798.2000122
1564.313419	796.4000244
1564.825701	803.0
1565.337929	800.0
1565.850103	791.0
1566.362223	794.0
1566.874288	795.5999756
1567.386299	799.0
1567.898256	791.4000244
1568.410158	806.0
1568.922007	794.5999756
1569.4338	793.2000122
1569.94554	796.0
1570.457226	790.7999878
1570.968857	795.2000122
1571.480434	789.2000122
1571.991956	800.5999756
1572.503425	798.5999756
1573.014839	798.0
1573.526199	798.4000244
1574.037505	802.4000244
1574.548756	795.7999878
1575.059953	795.5999756
1575.571096	794.2000122
1576.082185	791.5999756
1576.59322	805.5999756
1577.1042	798.0
1577.615126	795.4000244
1578.125998	798.4000244
1578.636816	798.5999756
1579.14758	801.5999756
1579.658289	796.2000122
1580.168944	795.5999756
1580.679545	800.7999878
1581.190092	795.2000122
1581.700585	805.0
1582.211023	796.4000244
1582.721407	799.7999878
1583.231737	799.2000122
1583.742013	796.4000244
1584.252235	795.7999878
1584.762403	793.2000122
1585.272516	800.4000244
1585.782575	799.0
1586.292581	792.2000122
1586.802532	797.5999756
1587.312428	792.2000122
1587.822271	792.0
1588.33206	788.2000122
1588.841794	795.2000122
1589.351474	793.4000244
1589.8611	795.5999756
1590.370672	796.5999756
1590.88019	803.5999756
1591.389654	795.5999756
1591.899064	798.0
1592.408419	799.5999756
