1042.452273	844.5999756
1043.018714	846.2000122
1043.585098	852.4000244
1044.151424	853.2000122
1044.717692	847.5999756
1045.283903	840.0
1045.850056	845.2000122
1046.416151	841.7999878
1046.982188	843.0
1047.548167	842.2000122
1048.114089	840.5999756
1048.679953	840.0
1049.24576	840.5999756
1049.811509	838.5999756
1050.3772	844.7999878
1050.942833	842.4000244
1051.508408	840.4000244
1052.073926	836.7999878
1052.639387	837.2000122
1053.204789	835.5999756
1053.770134	834.2000122
1054.335421	831.4000244
1054.900651	834.5999756
1055.465823	834.7999878
1056.030937	834.5999756
1056.595993	835.5999756
1057.160992	833.0
1057.725934	828.7999878
1058.290817	832.2000122
1058.855643	828.7999878
1059.420411	835.7999878
1059.985122	828.2000122
1060.549775	831.7999878
1061.114371	832.4000244
1061.678908	829.0
1062.243389	828.5999756
1062.807811	827.2000122
1063.372176	827.7999878
1063.936483	831.5999756
1064.500733	833.7999878
1065.064925	825.4000244
1065.62906	831.0
1066.193137	824.4000244
1066.757156	829.5999756
1067.321118	826.7999878
1067.885022	828.5999756
1068.448869	823.7999878
1069.012658	826.4000244
1069.57639	833.0
1070.140063	831.5999756
1070.70368	824.7999878
1071.267239	824.2000122
1071.83074	832.4000244
1072.394184	830.5999756
1072.95757	827.7999878
1073.520899	819.0
1074.08417	829.2000122
1074.647383	825.4000244
1075.21054	826.5999756
1075.773638	823.0
1076.336679	827.5999756
1076.899663	824.7999878
1077.462589	828.7999878
1078.025457	825.7999878
1078.588268	822.4000244
1079.151022	826.0
1079.713718	819.2000122
1080.276356	817.2000122
1080.838937	827.7999878
1081.401461	823.0
1081.963927	826.5999756
1082.526336	814.0
1083.088687	828.4000244
1083.650981	818.0
1084.213217	820.2000122
1084.775396	823.4000244
1085.337517	827.7999878
1085.899581	820.4000244
1086.461587	826.5999756
1087.023536	825.0
1087.585428	831.0
1088.147262	826.5999756
1088.709039	830.7999878
1089.270758	825.5999756
1089.83242	819.0
1090.394024	814.7999878
1090.955571	822.2000122
1091.517061	815.0
1092.078493	815.4000244
1092.639868	817.0
1093.201185	816.7999878
1093.762445	819.4000244
1094.323648	825.7999878
1094.884793	821.0
1095.445881	818.0
1096.006911	824.4000244
1096.567884	816.2000122
1097.1288	824.2000122
1097.689659	821.7999878
1098.25046	820.2000122
1098.811203	819.4000244
1099.37189	824.5999756
1099.932518	818.5999756
1100.49309	817.4000244
1101.053604	822.4000244
1101.614061	816.5999756
1102.174461	818.2000122
1102.734803	819.2000122
1103.295088	823.7999878
1103.855316	820.4000244
1104.415486	814.4000244
1104.975599	817.5999756
1105.535655	819.2000122
1106.095653	811.7999878
1106.655594	820.0
1107.215478	816.7999878
1107.775305	818.4000244
1108.335074	818.5999756
1108.894786	820.7999878
1109.45444	814.4000244
1110.014038	821.4000244
1110.573578	809.5999756
1111.133061	822.2000122
1111.692486	814.5999756
1112.251854	817.2000122
1112.811165	811.0
1113.370419	813.2000122
1113.929616	819.7999878
1114.488755	812.0
1115.047837	814.7999878
1115.606862	815.7999878
1116.16583	816.2000122
1116.72474	817.0
1117.283593	813.7999878
1117.842389	819.2000122
1118.401128	814.4000244
1118.959809	814.0
1119.518433	813.7999878
1120.077	805.4000244
1120.63551	812.0
1121.193963	819.2000122
1121.752358	811.5999756
1122.310697	814.4000244
1122.868978	811.2000122
1123.427202	815.5999756
1123.985368	815.7999878
1124.543478	817.7999878
1125.10153	817.5999756
1125.659526	807.4000244
1126.217464	809.2000122
1126.775345	814.0
1127.333168	813.2000122
1127.890935	810.4000244
1128.448644	812.5999756
1129.006297	815.0
1129.563892	813.2000122
1130.12143	812.5999756
1130.678911	816.0
1131.236335	815.5999756
1131.793701	814.7999878
1132.351011	816.7999878
1132.908263	809.7999878
1133.465458	810.7999878
1134.022597	807.5999756
1134.579678	813.7999878
1135.136702	813.0
1135.693669	818.5999756
1136.250578	821.4000244
1136.807431	806.0
1137.364227	807.4000244
1137.920965	816.7999878
1138.477647	810.7999878
1139.034271	816.5999756
1139.590839	809.0
1140.147349	817.5999756
1140.703802	810.5999756
1141.260198	813.7999878
1141.816537	805.7999878
1142.37282	819.4000244
1142.929045	815.2000122
1143.485213	811.4000244
1144.041323	809.4000244
1144.597377	812.5999756
1145.153374	810.4000244
1145.709314	814.0
1146.265197	813.7999878
1146.821023	811.2000122
1147.376792	811.4000244
1147.932503	815.2000122
1148.488158	805.2000122
1149.043756	807.4000244
1149.599297	819.0
1150.154781	817.0
1150.710207	812.2000122
1151.265577	815.0
1151.82089	821.0
1152.376146	809.7999878
1152.931345	811.4000244
1153.486487	816.4000244
1154.041572	818.7999878
1154.5966	815.0
1155.151571	813.0
1155.706485	817.4000244
1156.261342	815.4000244
1156.816142	811.7999878
1157.370885	815.7999878
1157.925572	814.5999756
1158.480201	815.5999756
1159.034774	818.5999756
1159.589289	814.7999878
1160.143748	810.2000122
1160.698149	815.0
1161.252494	812.4000244
1161.806782	809.0
1162.361013	810.2000122
1162.915187	816.7999878
1163.469304	812.0
1164.023364	812.4000244
1164.577368	808.0
1165.131314	810.2000122
1165.685204	808.4000244
1166.239036	807.0
1166.792812	808.5999756
1167.346531	820.5999756
1167.900193	817.0
1168.453798	817.0
1169.007347	814.5999756
1169.560838	805.5999756
1170.114273	810.7999878
1170.66765	805.2000122
1171.220971	809.4000244
1171.774235	815.2000122
1172.327443	813.5999756
1172.880593	809.2000122
1173.433687	814.7999878
1173.986723	815.7999878
1174.539703	807.5999756
1175.092626	818.4000244
1175.645493	807.2000122
1176.198302	810.0
1176.751055	803.0
1177.303751	808.7999878
1177.85639	811.4000244
1178.408972	814.2000122
1178.961498	815.0
1179.513966	812.2000122
1180.066378	802.7999878
1180.618733	817.5999756
1181.171032	807.2000122
1181.723273	807.4000244
1182.275458	808.0
1182.827586	809.2000122
1183.379657	811.7999878
1183.931672	808.4000244
1184.48363	808.5999756
1185.035531	812.4000244
1185.587375	808.7999878
1186.139162	817.4000244
1186.690893	812.0
1187.242567	813.2000122
1187.794184	806.2000122
1188.345745	808.0
1188.897249	810.7999878
1189.448696	806.5999756
1190.000086	810.2000122
1190.55142	814.0
1191.102697	806.7999878
1191.653918	806.0
1192.205081	809.4000244
1192.756188	807.2000122
1193.307238	820.0
1193.858232	808.4000244
1194.409169	812.4000244
1194.960049	811.2000122
1195.510872	811.0
1196.061639	803.4000244
1196.612349	805.5999756
1197.163003	807.2000122
1197.713599	803.4000244
1198.264139	804.4000244
1198.814623	805.0
1199.36505	803.5999756
1199.91542	806.7999878
1200.465734	808.4000244
1201.01599	801.4000244
1201.566191	816.7999878
1202.116334	804.5999756
1202.666421	805.0
1203.216452	808.4000244
1203.766425	809.7999878
1204.316343	803.2000122
1204.866203	807.7999878
1205.416007	802.5999756
1205.965754	809.0
1206.515445	809.5999756
1207.065079	809.4000244
1207.614657	807.2000122
1208.164177	803.7999878
1208.713642	804.2000122
1209.26305	809.7999878
1209.812401	811.2000122
1210.361695	811.2000122
1210.910933	805.0
1211.460115	811.0
1212.00924	805.7999878
1212.558308	802.4000244
1213.10732	803.5999756
1213.656275	807.5999756
1214.205174	801.5999756
1214.754016	804.0
1215.302801	801.5999756
1215.85153	808.7999878
1216.400203	802.5999756
1216.948819	810.2000122
1217.497378	803.2000122
1218.045881	807.0
1218.594327	806.5999756
1219.142717	810.7999878
1219.691051	804.7999878
1220.239327	805.4000244
1220.787548	810.7999878
1221.335712	798.5999756
1221.883819	804.4000244
1222.43187	802.7999878
1222.979864	806.2000122
1223.527802	798.4000244
1224.075683	807.0
1224.623508	798.7999878
1225.171277	798.2000122
1225.718989	806.5999756
1226.266644	797.5999756
1226.814243	809.0
1227.361786	798.7999878
1227.909272	806.7999878
1228.456702	804.7999878
1229.004075	802.5999756
1229.551392	803.4000244
1230.098652	804.2000122
1230.645856	802.4000244
1231.193003	807.4000244
1231.740094	796.5999756
1232.287129	799.5999756
1232.834107	800.4000244
1233.381029	807.2000122
1233.927894	805.2000122
1234.474703	805.2000122
1235.021455	795.4000244
1235.568151	807.7999878
1236.114791	801.0
1236.661374	798.5999756
1237.207901	801.2000122
1237.754372	806.7999878
1238.300786	802.4000244
1238.847144	802.0
1239.393445	805.2000122
1239.93969	804.5999756
1240.485879	802.0
1241.032011	799.2000122
1241.578087	800.7999878
1242.124106	799.2000122
1242.67007	799.7999878
1243.215976	806.0
1243.761827	801.0
1244.307621	799.0
1244.853359	799.5999756
1245.39904	802.2000122
1245.944665	800.7999878
1246.490234	804.0
1247.035746	806.4000244
1247.581203	796.0
1248.126602	805.0
1248.671946	803.0
1249.217233	803.2000122
1249.762464	799.0
1250.307638	797.4000244
1250.852757	802.7999878
1251.397819	798.2000122
1251.942824	796.5999756
1252.487774	800.2000122
1253.032667	800.5999756
1253.577503	797.5999756
1254.122284	798.7999878
1254.667008	800.2000122
1255.211676	799.5999756
1255.756288	798.4000244
1256.300843	795.7999878
1256.845342	796.5999756
1257.389785	800.7999878
1257.934172	798.4000244
1258.478502	796.4000244
1259.022776	803.2000122
1259.566994	801.5999756
1260.111156	805.2000122
1260.655261	804.5999756
1261.199311	797.0
1261.743304	797.2000122
1262.28724	799.2000122
1262.831121	796.5999756
1263.374945	799.4000244
1263.918713	798.7999878
1264.462425	800.4000244
1265.006081	795.2000122
1265.54968	799.5999756
1266.093223	810.0
1266.636711	801.0
1267.180141	792.5999756
1267.723516	798.0
1268.266835	799.4000244
1268.810097	795.4000244
1269.353303	798.2000122
1269.896453	793.5999756
1270.439547	796.7999878
1270.982584	798.5999756
1271.525566	798.5999756
1272.068491	791.4000244
1272.61136	797.5999756
1273.154173	800.0
1273.69693	796.0
1274.239631	799.0
1274.782275	801.7999878
1275.324864	800.4000244
1275.867396	792.0
1276.409872	791.7999878
1276.952292	798.4000244
1277.494656	791.4000244
1278.036964	794.2000122
1278.579215	797.7999878
1279.121411	796.2000122
1279.66355	793.2000122
1280.205634	794.5999756
1280.747661	794.2000122
1281.289632	801.7999878
1281.831547	792.4000244
1282.373406	796.4000244
1282.915209	785.7999878
1283.456955	794.4000244
1283.998646	796.4000244
1284.540281	792.2000122
1285.081859	793.4000244
1285.623381	809.7999878
1286.164848	871.5999756
1286.706258	902.5999756
1287.247612	808.2000122
1287.788911	794.7999878
1288.330153	793.5999756
1288.871339	804.4000244
1289.412469	797.0
1289.953543	791.7999878
1290.494561	795.0
1291.035523	787.4000244
1291.576428	798.0
1292.117278	795.4000244
1292.658072	790.5999756
1293.19881	797.0
1293.739492	796.4000244
1294.280118	797.4000244
1294.820687	793.5999756
1295.361201	800.5999756
1295.901659	794.5999756
1296.442061	791.4000244
1296.982406	797.5999756
1297.522696	788.5999756
1298.06293	788.5999756
1298.603108	792.0
1299.143229	794.2000122
1299.683295	797.2000122
1300.223305	797.7999878
1300.763259	791.2000122
1301.303157	786.4000244
1301.842999	798.7999878
1302.382785	794.0
1302.922515	789.2000122
1303.462189	797.2000122
1304.001807	791.4000244
1304.541369	795.2000122
1305.080875	790.0
1305.620326	788.5999756
1306.15972	793.5999756
1306.699058	793.0
1307.238341	790.4000244
1307.777567	793.0
1308.316738	790.5999756
1308.855853	791.5999756
1309.394912	791.2000122
1309.933915	792.7999878
1310.472862	790.4000244
1311.011753	792.4000244
1311.550588	787.0
1312.089367	797.4000244
1312.62809	786.2000122
1313.166758	785.5999756
1313.70537	786.5999756
1314.243925	792.7999878
1314.782425	787.0
1315.320869	789.0
1315.859257	795.5999756
1316.397589	790.7999878
1316.935866	795.2000122
1317.474086	792.2000122
1318.012251	787.4000244
1318.55036	794.0
1319.088413	789.0
1319.62641	791.7999878
1320.164351	790.5999756
1320.702236	788.5999756
1321.240066	787.7999878
1321.777839	785.2000122
1322.315557	790.5999756
1322.853219	790.5999756
1323.390826	799.4000244
1323.928376	796.4000244
1324.465871	788.0
1325.003309	786.4000244
1325.540692	790.4000244
1326.07802	789.7999878
1326.615291	791.2000122
1327.152506	780.7999878
1327.689666	795.2000122
1328.22677	792.4000244
1329.837747	795.2000122
1330.374628	793.0
1330.911453	792.2000122
1331.448222	790.4000244
1331.984936	786.2000122
1332.521594	791.7999878
1333.058196	789.7999878
1333.594742	791.0
1334.131232	788.4000244
1334.667667	791.0
1335.204046	791.4000244
1335.740369	791.2000122
1336.276637	791.0
1336.812848	793.0
1337.349004	793.7999878
1337.885105	790.0
1338.421149	792.0
1338.957138	791.0
1339.493071	792.4000244
1340.028949	790.7999878
1340.56477	789.0
1341.100536	788.0
1341.636246	786.0
1342.171901	788.2000122
1342.7075	786.0
1343.243043	792.4000244
1343.77853	786.7999878
1344.313962	782.0
1344.849338	789.5999756
1345.384659	790.0
1345.919923	788.0
1346.455133	790.2000122
1346.990286	791.0
1347.525384	783.4000244
1348.060426	787.0
1348.595412	789.7999878
1349.130343	785.4000244
1349.665218	795.4000244
1350.200037	796.2000122
1350.734801	788.7999878
1351.269509	792.0
1351.804162	793.4000244
1352.338758	788.4000244
1352.8733	789.2000122
1353.407785	787.7999878
1353.942215	785.7999878
1354.476589	785.7999878
1355.010908	792.0
1355.545171	794.0
1356.079379	789.0
1356.61353	791.5999756
1357.147627	787.7999878
1357.681667	784.7999878
1358.215652	788.0
1358.749582	784.5999756
1359.283456	787.2000122
1359.817274	788.0
1360.351037	788.5999756
1360.884744	782.2000122
1361.418395	788.4000244
1361.951991	784.4000244
1362.485531	790.2000122
1363.019016	784.2000122
1363.552445	785.4000244
1364.085819	789.2000122
1364.619137	785.2000122
1365.1524	792.4000244
1365.685607	788.0
1366.218758	788.4000244
1366.751854	790.0
1367.284894	783.5999756
1367.817879	788.7999878
1368.350808	780.7999878
1368.883682	787.7999878
1369.4165	782.5999756
1369.949263	787.5999756
1370.48197	785.2000122
1371.014622	784.5999756
1371.547218	786.4000244
1372.079758	785.7999878
1372.612244	776.4000244
1373.144673	791.0
1373.677047	782.4000244
1374.209366	791.0
1374.741629	784.5999756
1375.273836	782.0
1375.805989	783.4000244
1376.338085	789.5999756
1376.870126	783.2000122
1377.402112	784.0
1377.934042	789.2000122
1378.465917	782.7999878
1378.997736	781.7999878
1379.5295	785.0
1380.061208	789.2000122
1380.592861	786.7999878
1381.124459	784.5999756
1381.656	782.7999878
1382.187487	781.0
1382.718918	787.7999878
1383.250294	782.5999756
1383.781614	788.0
1384.312879	790.4000244
1384.844088	779.2000122
1385.375242	779.5999756
1385.90634	787.7999878
1386.437383	784.2000122
1386.968371	784.5999756
1387.499303	782.7999878
1388.03018	788.4000244
1388.561001	793.2000122
1389.091767	876.4000244
1389.622478	941.4000244
1390.153133	810.2000122
1390.683733	789.4000244
1391.214277	782.0
1391.744766	783.4000244
1392.2752	784.4000244
1392.805578	775.7999878
1393.335901	781.4000244
1393.866168	781.5999756
1394.396381	790.2000122
1394.926537	785.7999878
1395.456639	785.7999878
1395.986685	785.0
1396.516675	779.5999756
1397.046611	782.7999878
1397.576491	784.4000244
1398.106315	787.0
1398.636084	780.2000122
1399.165798	783.4000244
1399.695457	785.4000244
1400.22506	782.7999878
1400.754608	786.4000244
1401.284101	788.0
1401.813538	783.0
1402.34292	784.2000122
1402.872247	782.7999878
1403.401518	787.5999756
1403.930734	782.5999756
1404.459895	782.4000244
1404.989	784.2000122
1405.51805	787.7999878
1406.047045	782.0
1406.575984	782.5999756
1407.104869	788.2000122
1407.633697	788.0
1408.162471	775.0
1408.691189	787.2000122
1409.219852	786.0
1409.74846	781.2000122
1410.277013	783.5999756
1410.80551	795.2000122
1411.333952	783.5999756
1411.862339	782.2000122
1412.39067	779.7999878
1412.918946	781.4000244
1413.447167	778.5999756
1413.975333	787.4000244
1414.503444	783.0
1415.031499	792.7999878
1415.559499	793.4000244
1416.087444	774.4000244
1416.615333	787.2000122
1417.143167	781.5999756
1417.670947	786.0
1418.19867	779.4000244
1418.726339	780.5999756
1419.253952	786.0
1419.781511	779.2000122
1420.309014	779.4000244
1420.836461	783.5999756
1421.363854	784.7999878
1421.891191	787.2000122
1422.418474	783.0
1422.945701	779.0
1423.472872	783.7999878
1423.999989	781.4000244
1424.52705	787.4000244
1425.054057	783.0
1425.581008	782.0
1426.107904	787.4000244
1426.634745	778.7999878
1427.16153	785.0
1427.688261	785.4000244
1428.214936	785.7999878
1428.741556	785.4000244
1429.268121	780.0
1429.794631	780.5999756
1430.321085	782.5999756
1430.847485	779.5999756
1431.373829	778.4000244
1431.900118	783.2000122
1432.426353	783.4000244
1432.952532	782.4000244
1433.478655	781.4000244
1434.004724	774.2000122
1434.530738	780.4000244
1435.056696	783.0
1435.5826	789.5999756
1436.108448	786.2000122
1436.634241	779.0
1437.159979	781.0
1437.685662	778.5999756
1438.21129	782.2000122
1438.736863	780.2000122
1439.262381	777.4000244
1439.787843	780.7999878
1440.313251	781.5999756
1440.838603	778.5999756
1441.3639	780.5999756
1441.889143	779.4000244
1442.41433	786.2000122
1442.939462	782.7999878
1443.464539	786.0
1443.989561	778.4000244
1444.514528	779.5999756
1445.03944	778.5999756
1445.564297	783.5999756
1446.089099	779.7999878
1446.613846	776.4000244
1447.138537	782.4000244
1447.663174	784.0
1448.187756	784.7999878
1448.712282	785.4000244
1449.236754	777.7999878
1449.761171	777.5999756
1450.285532	778.0
1450.809839	776.5999756
1451.33409	778.2000122
1451.858287	781.0
1452.382428	783.4000244
1452.906515	779.7999878
1453.430546	782.4000244
1453.954523	780.7999878
1454.478444	781.2000122
1455.002311	776.7999878
1455.526123	772.7999878
1456.049879	781.2000122
1456.573581	780.4000244
1457.097227	776.5999756
1457.620819	785.2000122
1458.144356	779.2000122
1458.667837	784.4000244
1459.191264	779.0
1459.714636	780.7999878
1460.237952	782.7999878
1460.761214	778.7999878
1461.284421	776.0
1461.807573	783.5999756
1462.33067	780.4000244
1462.853712	777.7999878
1463.376699	778.4000244
1463.899632	780.7999878
1464.422509	786.2000122
1464.945331	776.5999756
1465.468099	775.0
1465.990811	773.0
1466.513469	779.5999756
1467.036071	777.7999878
1467.558619	781.7999878
1468.081112	774.0
1468.60355	782.2000122
1469.125933	782.7999878
1469.648261	781.7999878
1470.170534	778.4000244
1470.692752	776.7999878
1471.214916	775.0
1471.737024	775.0
1472.259078	776.0
1472.781077	784.0
1473.303021	778.0
1473.82491	779.4000244
1474.346744	774.7999878
1474.868523	779.5999756
1475.390248	781.5999756
1475.911917	774.5999756
1476.433532	776.0
1476.955092	780.4000244
1477.476597	777.7999878
1477.998047	778.5999756
1478.519442	778.4000244
1479.040783	778.4000244
1479.562068	770.4000244
1480.083299	777.4000244
1480.604475	769.4000244
1481.125596	776.7999878
1481.646663	777.7999878
1482.167674	777.0
1482.688631	774.0
1483.209533	780.5999756
1483.73038	772.2000122
1484.251172	776.0
1484.771909	778.4000244
1485.292592	777.7999878
1485.81322	775.7999878
1486.333793	771.2000122
1486.854311	771.7999878
1487.374775	774.2000122
1487.895183	780.7999878
1488.415537	778.5999756
1488.935836	771.7999878
1489.456081	775.4000244
1489.97627	775.7999878
1490.496405	772.4000244
1491.016485	773.0
1491.536511	773.0
1492.056481	770.7999878
1492.576397	773.2000122
1493.096258	774.5999756
1493.616064	778.4000244
1494.135816	775.7999878
1494.655513	769.7999878
1495.175155	773.5999756
1495.694742	777.0
1496.214274	780.2000122
1496.733752	775.2000122
1497.253175	769.2000122
1497.772544	775.2000122
1498.291858	775.5999756
1498.811116	779.4000244
1499.330321	770.7999878
1499.84947	779.5999756
1500.368565	776.7999878
1500.887605	774.0
1501.406591	778.2000122
1501.925521	773.0
1502.444397	769.7999878
1502.963219	770.5999756
1503.481985	774.7999878
1504.000697	775.0
1504.519355	773.0
1505.037957	768.4000244
1505.556505	769.7999878
1506.074999	769.0
1506.593437	774.2000122
1507.111821	774.2000122
1507.63015	772.5999756
1508.148425	770.2000122
1508.666645	772.5999756
1509.18481	772.4000244
1509.702921	772.2000122
1510.220977	782.5999756
1510.738979	780.2000122
1511.256925	768.0
1511.774817	775.7999878
1512.292655	771.0
1512.810438	773.4000244
1513.328166	767.2000122
1513.84584	776.5999756
1514.363459	776.0
1514.881023	768.0
1515.398533	777.2000122
1515.915988	777.0
1516.433389	771.5999756
1516.950734	770.0
1517.468026	770.5999756
1517.985263	766.2000122
1518.502445	773.0
1519.019572	777.7999878
1519.536645	770.4000244
1520.053664	772.5999756
1520.570628	774.7999878
1521.087537	774.2000122
1521.604392	768.0
1522.121192	772.5999756
1522.637937	772.5999756
1523.154628	772.0
1523.671265	767.5999756
1524.187847	770.7999878
1524.704374	775.4000244
1525.220847	773.2000122
1525.737265	776.0
1526.253629	776.7999878
1526.769938	780.2000122
1527.286192	775.5999756
1527.802392	774.5999756
1528.318538	771.7999878
1528.834629	777.2000122
1529.350666	776.2000122
1529.866648	771.2000122
1530.382575	773.7999878
1530.898448	770.7999878
1531.414266	770.7999878
1531.93003	769.7999878
1532.44574	770.0
1532.961395	774.0
1533.476995	779.4000244
1533.992541	776.5999756
1534.508033	772.0
1535.02347	771.5999756
1535.538852	775.0
1536.05418	774.7999878
1536.569454	772.4000244
1537.084673	772.2000122
1537.599837	766.7999878
1538.114947	775.4000244
1538.630003	773.4000244
1539.145004	770.4000244
1539.659951	774.4000244
1540.174843	771.0
1540.689681	765.5999756
1541.204465	776.2000122
1541.719194	777.2000122
1542.233868	772.7999878
1542.748488	769.4000244
1543.263054	773.7999878
1543.777565	765.7999878
1544.292022	768.7999878
1544.806424	770.5999756
1545.320772	770.4000244
1545.835066	770.7999878
1546.349305	775.0
1546.863489	774.0
1547.37762	771.2000122
1547.891696	768.5999756
1548.405717	772.5999756
1548.919684	771.7999878
1549.433597	774.4000244
1549.947455	773.0
1550.461259	770.4000244
1550.975009	770.2000122
1551.488704	780.0
1552.002345	773.4000244
1552.515931	769.5999756
1553.029463	773.2000122
1553.542941	770.7999878
1554.056364	768.0
1554.569733	772.5999756
1555.083048	766.4000244
1555.596308	768.4000244
1556.109514	768.2000122
1556.622665	773.4000244
1557.135762	775.0
1557.648805	773.5999756
1558.161794	775.2000122
1558.674728	775.0
1559.187608	774.5999756
1559.700433	769.7999878
1560.213205	766.7999878
1560.725921	772.7999878
1561.238584	773.4000244
1561.751192	768.0
1562.263746	772.0
1562.776246	771.4000244
1563.288691	776.5999756
1563.801082	772.5999756
1564.313419	772.5999756
1564.825701	771.4000244
1565.337929	768.0
1565.850103	771.5999756
1566.362223	771.7999878
1566.874288	769.2000122
1567.386299	768.5999756
1567.898256	769.7999878
1568.410158	768.2000122
1568.922007	769.2000122
1569.4338	772.2000122
1569.94554	774.0
1570.457226	767.4000244
1570.968857	773.4000244
1571.480434	768.0
1571.991956	769.5999756
1572.503425	771.4000244
1573.014839	775.4000244
1573.526199	773.0
1574.037505	773.2000122
1574.548756	771.0
1575.059953	768.5999756
1575.571096	771.2000122
1576.082185	773.4000244
1576.59322	777.0
1577.1042	768.7999878
1577.615126	772.5999756
1578.125998	768.2000122
1578.636816	770.5999756
1579.14758	775.7999878
1579.658289	767.7999878
1580.168944	771.2000122
1580.679545	768.2000122
1581.190092	766.2000122
1581.700585	766.7999878
1582.211023	767.0
1582.721407	768.7999878
1583.231737	770.7999878
1583.742013	772.5999756
1584.252235	763.4000244
1584.762403	766.7999878
1585.272516	768.5999756
1585.782575	772.0
1586.292581	770.4000244
1586.802532	763.5999756
1587.312428	768.2000122
1587.822271	773.4000244
1588.33206	770.0
1588.841794	767.5999756
1589.351474	774.2000122
1589.8611	767.4000244
1590.370672	763.2000122
1590.88019	765.2000122
1591.389654	766.0
1591.899064	767.0
1592.408419	770.5999756
