1042.452273	757.7999878
1043.018714	753.2000122
1043.585098	750.4000244
1044.151424	750.2000122
1044.717692	750.2000122
1045.283903	748.5999756
1045.850056	748.4000244
1046.416151	743.4000244
1046.982188	743.5999756
1047.548167	747.5999756
1048.114089	743.4000244
1048.679953	746.5999756
1049.24576	751.2000122
1049.811509	744.5999756
1050.3772	744.4000244
1050.942833	747.0
1051.508408	739.0
1052.073926	737.4000244
1052.639387	744.7999878
1053.204789	748.0
1053.770134	741.5999756
1054.335421	746.5999756
1054.900651	743.7999878
1055.465823	741.4000244
1056.030937	745.0
1056.595993	742.5999756
1057.160992	745.4000244
1057.725934	741.0
1058.290817	745.7999878
1058.855643	739.2000122
1059.420411	738.7999878
1059.985122	741.5999756
1060.549775	746.7999878
1061.114371	742.7999878
1061.678908	737.2000122
1062.243389	744.5999756
1062.807811	738.5999756
1063.372176	738.2000122
1063.936483	741.2000122
1064.500733	737.7999878
1065.064925	742.0
1065.62906	738.7999878
1066.193137	736.4000244
1066.757156	741.2000122
1067.321118	739.5999756
1067.885022	735.7999878
1068.448869	741.2000122
1069.012658	737.7999878
1069.57639	738.0
1070.140063	740.7999878
1070.70368	737.2000122
1071.267239	735.2000122
1071.83074	735.4000244
1072.394184	734.4000244
1072.95757	747.0
1073.520899	735.4000244
1074.08417	735.7999878
1074.647383	734.0
1075.21054	733.4000244
1075.773638	742.2000122
1076.336679	735.7999878
1076.899663	741.4000244
1077.462589	738.4000244
1078.025457	736.4000244
1078.588268	738.4000244
1079.151022	735.5999756
1079.713718	737.4000244
1080.276356	735.7999878
1080.838937	736.0
1081.401461	740.7999878
1081.963927	737.0
1082.526336	739.4000244
1083.088687	740.2000122
1083.650981	738.5999756
1084.213217	739.0
1084.775396	735.7999878
1085.337517	740.0
1085.899581	734.4000244
1086.461587	737.2000122
1087.023536	733.7999878
1087.585428	735.0
1088.147262	734.4000244
1088.709039	735.2000122
1089.270758	734.5999756
1089.83242	733.5999756
1090.394024	735.7999878
1090.955571	735.0
1091.517061	736.0
1092.078493	731.4000244
1092.639868	734.7999878
1093.201185	735.5999756
1093.762445	733.7999878
1094.323648	735.0
1094.884793	740.2000122
1095.445881	734.0
1096.006911	731.5999756
1096.567884	736.2000122
1097.1288	740.7999878
1097.689659	737.5999756
1098.25046	737.2000122
1098.811203	734.5999756
1099.37189	731.5999756
1099.932518	731.5999756
1100.49309	731.7999878
1101.053604	731.2000122
1101.614061	733.4000244
1102.174461	735.7999878
1102.734803	732.7999878
1103.295088	737.4000244
1103.855316	730.5999756
1104.415486	731.0
1104.975599	741.2000122
1105.535655	732.5999756
1106.095653	729.0
1106.655594	734.7999878
1107.215478	731.7999878
1107.775305	736.4000244
1108.335074	733.0
1108.894786	735.4000244
1109.45444	734.5999756
1110.014038	735.5999756
1110.573578	735.0
1111.133061	732.5999756
1111.692486	735.2000122
1112.251854	732.5999756
1112.811165	737.7999878
1113.370419	736.0
1113.929616	737.5999756
1114.488755	737.4000244
1115.047837	733.2000122
1115.606862	732.5999756
1116.16583	734.4000244
1116.72474	734.7999878
1117.283593	734.0
1117.842389	732.4000244
1118.401128	732.2000122
1118.959809	735.4000244
1119.518433	738.0
1120.077	730.7999878
1120.63551	732.7999878
1121.193963	730.2000122
1121.752358	733.4000244
1122.310697	735.7999878
1122.868978	732.2000122
1123.427202	731.0
1123.985368	736.0
1124.543478	735.2000122
1125.10153	737.5999756
1125.659526	734.4000244
1126.217464	735.5999756
1126.775345	738.4000244
1127.333168	735.5999756
1127.890935	732.2000122
1128.448644	734.2000122
1129.006297	731.7999878
1129.563892	733.5999756
1130.12143	736.0
1130.678911	732.4000244
1131.236335	738.0
1131.793701	735.0
1132.351011	735.0
1132.908263	733.5999756
1133.465458	732.0
1134.022597	736.2000122
1134.579678	729.2000122
1135.136702	731.7999878
1135.693669	734.4000244
1136.250578	727.5999756
1136.807431	730.7999878
1137.364227	737.0
1137.920965	733.4000244
1138.477647	734.0
1139.034271	737.4000244
1139.590839	732.5999756
1140.147349	729.7999878
1140.703802	731.5999756
1141.260198	733.2000122
1141.816537	737.7999878
1142.37282	728.4000244
1142.929045	740.0
1143.485213	731.7999878
1144.041323	736.2000122
1144.597377	734.2000122
1145.153374	734.2000122
1145.709314	732.2000122
1146.265197	735.4000244
1146.821023	733.5999756
1147.376792	736.2000122
1147.932503	738.2000122
1148.488158	730.7999878
1149.043756	737.7999878
1149.599297	734.4000244
1150.154781	736.7999878
1150.710207	760.4000244
1151.265577	788.4000244
1151.82089	762.5999756
1152.376146	740.2000122
1152.931345	741.0
1153.486487	735.2000122
1154.041572	737.5999756
1154.5966	735.0
1155.151571	734.2000122
1155.706485	733.2000122
1156.261342	736.4000244
1156.816142	737.0
1157.370885	735.7999878
1157.925572	733.2000122
1158.480201	733.7999878
1159.034774	741.7999878
1159.589289	730.5999756
1160.143748	736.0
1160.698149	736.4000244
1161.252494	736.0
1161.806782	732.0
1162.361013	733.0
1162.915187	732.0
1163.469304	739.4000244
1164.023364	737.5999756
1164.577368	731.5999756
1165.131314	731.2000122
1165.685204	732.2000122
1166.239036	733.7999878
1166.792812	731.5999756
1167.346531	734.4000244
1167.900193	737.5999756
1168.453798	732.7999878
1169.007347	734.4000244
1169.560838	735.7999878
1170.114273	732.5999756
1170.66765	735.2000122
1171.220971	729.5999756
1171.774235	731.0
1172.327443	732.0
1172.880593	728.5999756
1173.433687	733.5999756
1173.986723	733.7999878
1174.539703	731.0
1175.092626	730.4000244
1175.645493	733.0
1176.198302	728.7999878
1176.751055	726.5999756
1177.303751	725.7999878
1177.85639	735.0
1178.408972	736.0
1178.961498	734.5999756
1179.513966	727.5999756
1180.066378	730.7999878
1180.618733	732.0
1181.171032	734.0
1181.723273	732.4000244
1182.275458	735.5999756
1182.827586	732.0
1183.379657	733.7999878
1183.931672	727.7999878
1184.48363	735.0
1185.035531	730.2000122
1185.587375	731.4000244
1186.139162	728.7999878
1186.690893	734.0
1187.242567	728.2000122
1187.794184	732.7999878
1188.345745	731.2000122
1188.897249	733.7999878
1189.448696	733.4000244
1190.000086	730.5999756
1190.55142	732.0
1191.102697	733.2000122
1191.653918	732.4000244
1192.205081	732.2000122
1192.756188	733.2000122
1193.307238	746.0
1193.858232	733.2000122
1194.409169	734.7999878
1194.960049	733.4000244
1195.510872	735.2000122
1196.061639	732.5999756
1196.612349	733.0
1197.163003	733.2000122
1197.713599	731.7999878
1198.264139	732.4000244
1198.814623	732.7999878
1199.36505	734.0
1199.91542	731.5999756
1200.465734	737.0
1201.01599	729.7999878
1201.566191	730.5999756
1202.116334	731.5999756
1202.666421	736.2000122
1203.216452	733.2000122
1203.766425	730.0
1204.316343	733.5999756
1204.866203	733.2000122
1205.416007	731.0
1205.965754	729.4000244
1206.515445	728.0
1207.065079	726.2000122
1207.614657	732.0
1208.164177	729.4000244
1208.713642	733.2000122
1209.26305	733.2000122
1209.812401	731.7999878
1210.361695	733.0
1210.910933	735.0
1211.460115	730.5999756
1212.00924	734.0
1212.558308	730.5999756
1213.10732	737.2000122
1213.656275	733.4000244
1214.205174	737.0
1214.754016	736.5999756
1215.302801	731.7999878
1215.85153	733.5999756
1216.400203	734.4000244
1216.948819	733.7999878
1217.497378	732.4000244
1218.045881	734.5999756
1218.594327	733.0
1219.142717	731.5999756
1219.691051	731.7999878
1220.239327	738.0
1220.787548	734.2000122
1221.335712	740.4000244
1221.883819	729.7999878
1222.43187	736.7999878
1222.979864	733.7999878
1223.527802	733.4000244
1224.075683	729.0
1224.623508	732.2000122
1225.171277	730.2000122
1225.718989	733.7999878
1226.266644	736.2000122
1226.814243	733.2000122
1227.361786	732.0
1227.909272	729.5999756
1228.456702	735.4000244
1229.004075	729.2000122
1229.551392	728.5999756
1230.098652	733.7999878
1230.645856	735.0
1231.193003	734.7999878
1231.740094	741.4000244
1232.287129	734.2000122
1232.834107	736.0
1233.381029	731.2000122
1233.927894	729.5999756
1234.474703	730.0
1235.021455	736.4000244
1235.568151	727.5999756
1236.114791	732.5999756
1236.661374	731.0
1237.207901	732.0
1237.754372	738.0
1238.300786	731.7999878
1238.847144	730.0
1239.393445	735.5999756
1239.93969	732.2000122
1240.485879	737.2000122
1241.032011	732.0
1241.578087	734.5999756
1242.124106	728.0
1242.67007	732.0
1243.215976	732.4000244
1243.761827	731.2000122
1244.307621	730.2000122
1244.853359	736.0
1245.39904	729.0
1245.944665	730.7999878
1246.490234	733.7999878
1247.035746	737.0
1247.581203	733.7999878
1248.126602	733.7999878
1248.671946	738.0
1249.217233	732.7999878
1249.762464	737.0
1250.307638	740.0
1250.852757	735.4000244
1251.397819	737.2000122
1251.942824	737.7999878
1252.487774	733.7999878
1253.032667	734.0
1253.577503	736.7999878
1254.122284	736.4000244
1254.667008	735.4000244
1255.211676	739.4000244
1255.756288	735.5999756
1256.300843	736.5999756
1256.845342	731.0
1257.389785	732.4000244
1257.934172	732.7999878
1258.478502	734.0
1259.022776	733.5999756
1259.566994	743.4000244
1260.111156	762.0
1260.655261	733.7999878
1261.199311	737.0
1261.743304	739.7999878
1262.28724	736.0
1262.831121	743.5999756
1263.374945	753.7999878
1263.918713	755.4000244
1264.462425	763.7999878
1265.006081	796.5999756
1265.54968	828.7999878
1266.093223	816.4000244
1266.636711	769.2000122
1267.180141	750.0
1267.723516	747.2000122
1268.266835	744.0
1268.810097	737.7999878
1269.353303	734.2000122
1269.896453	736.2000122
1270.439547	740.7999878
1270.982584	741.7999878
1271.525566	737.4000244
1272.068491	734.4000244
1272.61136	740.2000122
1273.154173	740.0
1273.69693	739.4000244
1274.239631	729.2000122
1274.782275	736.4000244
1275.324864	734.5999756
1275.867396	748.5999756
1276.952292	735.7999878
1277.494656	737.2000122
1278.036964	741.0
1278.579215	737.0
1279.121411	739.0
1279.66355	742.4000244
1280.205634	743.0
1280.747661	741.4000244
1281.289632	745.4000244
1281.831547	744.7999878
1282.373406	747.5999756
1282.915209	762.2000122
1283.456955	779.7999878
1283.998646	821.2000122
1284.540281	912.2000122
1285.081859	1251.599976
1285.623381	2106.600098
1286.164848	2061.800049
1286.706258	1175.0
1287.247612	866.5999756
1287.788911	789.7999878
1288.330153	762.4000244
1288.871339	751.2000122
1289.412469	749.5999756
1289.953543	741.0
1290.494561	748.4000244
1291.035523	738.0
1291.576428	740.7999878
1292.117278	738.2000122
1292.658072	733.7999878
1293.19881	732.5999756
1293.739492	737.0
1294.280118	739.0
1294.820687	736.2000122
1295.361201	738.4000244
1295.901659	735.5999756
1296.442061	732.4000244
1296.982406	733.0
1297.522696	731.7999878
1298.06293	735.7999878
1298.603108	730.2000122
1299.143229	730.4000244
1299.683295	733.7999878
1300.223305	732.7999878
1300.763259	732.7999878
1301.303157	732.4000244
1301.842999	731.7999878
1302.382785	731.5999756
1302.922515	728.2000122
1303.462189	735.0
1304.001807	726.5999756
1304.541369	730.2000122
1305.080875	733.2000122
1305.620326	732.4000244
1306.15972	728.2000122
1306.699058	733.0
1307.238341	730.4000244
1307.777567	730.7999878
1308.316738	728.4000244
1308.855853	728.4000244
1309.394912	730.0
1309.933915	730.4000244
1310.472862	730.5999756
1311.011753	727.4000244
1311.550588	734.7999878
1312.089367	731.2000122
1312.62809	728.7999878
1313.166758	731.2000122
1313.70537	732.2000122
1314.243925	730.2000122
1314.782425	733.0
1315.320869	728.0
1315.859257	728.4000244
1316.397589	727.7999878
1316.935866	733.4000244
1317.474086	733.7999878
1318.012251	729.5999756
1318.55036	733.5999756
1319.088413	734.5999756
1319.62641	728.4000244
1320.164351	728.5999756
1320.702236	733.7999878
1321.240066	733.5999756
1321.777839	729.0
1322.315557	729.7999878
1322.853219	725.4000244
1323.390826	732.4000244
1323.928376	734.0
1324.465871	728.4000244
1325.003309	728.5999756
1325.540692	730.7999878
1326.07802	726.7999878
1326.615291	731.5999756
1327.152506	733.0
1327.689666	728.2000122
1328.22677	724.7999878
1328.763818	733.0
1329.300811	728.2000122
1329.837747	728.5999756
1330.374628	727.7999878
1330.911453	731.4000244
1331.448222	726.7999878
1331.984936	730.2000122
1332.521594	730.4000244
1333.058196	726.2000122
1333.594742	726.0
1334.131232	724.0
1334.667667	724.7999878
1335.204046	724.5999756
1335.740369	728.4000244
1336.276637	728.5999756
1336.812848	728.2000122
1337.349004	735.4000244
1337.885105	729.7999878
1338.421149	731.2000122
1338.957138	727.7999878
1339.493071	727.2000122
1340.028949	728.2000122
1340.56477	729.0
1341.100536	724.5999756
1341.636246	732.7999878
1342.171901	726.0
1342.7075	726.4000244
1343.243043	727.7999878
1343.77853	724.2000122
1344.313962	728.7999878
1344.849338	729.5999756
1345.384659	725.2000122
1345.919923	729.7999878
1346.455133	728.7999878
1346.990286	723.7999878
1347.525384	728.4000244
1348.060426	726.4000244
1348.595412	725.5999756
1349.130343	730.4000244
1349.665218	732.7999878
1350.200037	728.2000122
1350.734801	731.2000122
1351.269509	730.5999756
1351.804162	730.4000244
1352.338758	733.5999756
1352.8733	726.4000244
1353.407785	727.4000244
1353.942215	733.2000122
1354.476589	726.7999878
1355.010908	728.7999878
1355.545171	725.4000244
1356.079379	723.4000244
1356.61353	733.0
1357.147627	726.0
1357.681667	726.5999756
1358.215652	724.2000122
1358.749582	728.2000122
1359.283456	729.5999756
1359.817274	726.5999756
1360.351037	732.2000122
1360.884744	727.0
1361.418395	728.2000122
1361.951991	728.7999878
1362.485531	727.2000122
1363.019016	728.5999756
1363.552445	731.0
1364.085819	730.0
1364.619137	728.5999756
1365.1524	729.4000244
1365.685607	723.5999756
1366.218758	728.5999756
1366.751854	734.5999756
1367.284894	734.4000244
1367.817879	724.0
1368.350808	730.4000244
1368.883682	728.5999756
1369.4165	731.5999756
1369.949263	730.0
1370.48197	754.2000122
1371.014622	772.0
1371.547218	739.5999756
1372.079758	734.0
1372.612244	728.4000244
1373.144673	732.4000244
1373.677047	729.0
1374.209366	728.5999756
1374.741629	729.7999878
1375.273836	727.2000122
1375.805989	731.2000122
1376.338085	728.0
1376.870126	729.7999878
1377.402112	730.0
1377.934042	726.7999878
1378.465917	729.0
1378.997736	731.2000122
1379.5295	727.4000244
1380.061208	733.0
1380.592861	730.7999878
1381.124459	736.7999878
1381.656	734.0
1382.187487	738.2000122
1382.718918	736.7999878
1383.250294	736.7999878
1383.781614	740.7999878
1384.312879	745.2000122
1384.844088	743.0
1385.375242	752.4000244
1385.90634	762.7999878
1386.437383	775.4000244
1386.968371	798.7999878
1387.499303	838.7999878
1388.03018	998.5999756
1388.561001	1773.0
1389.091767	3566.600098
1389.622478	2413.199951
1390.153133	1091.800049
1390.683733	845.5999756
1391.214277	785.5999756
1391.744766	764.4000244
1392.2752	754.0
1392.805578	748.7999878
1393.335901	741.0
1393.866168	744.5999756
1394.396381	738.0
1394.926537	732.5999756
1395.456639	736.7999878
1395.986685	740.2000122
1396.516675	735.2000122
1397.046611	727.0
1397.576491	736.0
1398.106315	731.2000122
1398.636084	732.4000244
1399.165798	734.2000122
1399.695457	726.2000122
1400.22506	731.2000122
1400.754608	733.0
1401.284101	728.2000122
1401.813538	728.7999878
1402.34292	730.5999756
1402.872247	729.0
1403.401518	730.7999878
1403.930734	727.2000122
1404.459895	727.7999878
1404.989	729.5999756
1405.51805	727.4000244
1406.047045	730.7999878
1406.575984	733.0
1407.104869	734.7999878
1407.633697	734.4000244
1408.162471	737.7999878
1408.691189	742.7999878
1409.219852	764.4000244
1409.74846	813.7999878
1410.277013	899.4000244
1410.80551	900.5999756
1411.333952	801.7999878
1411.862339	761.5999756
1412.39067	741.5999756
1412.918946	733.4000244
1413.447167	727.2000122
1413.975333	731.2000122
1414.503444	729.2000122
1415.031499	728.5999756
1415.559499	737.7999878
1416.087444	729.0
1416.615333	729.0
1417.143167	724.7999878
1417.670947	723.4000244
1418.19867	727.4000244
1418.726339	720.5999756
1419.253952	724.0
1419.781511	727.2000122
1420.309014	723.2000122
1420.836461	721.0
1421.363854	725.7999878
1421.891191	724.2000122
1422.418474	720.5999756
1422.945701	726.5999756
1423.472872	726.5999756
1423.999989	721.2000122
1424.52705	723.4000244
1425.054057	724.4000244
1425.581008	725.0
1426.107904	727.2000122
1426.634745	734.4000244
1427.16153	726.4000244
1427.688261	723.4000244
1428.214936	727.2000122
1428.741556	724.5999756
1429.268121	716.7999878
1429.794631	723.2000122
1430.321085	721.0
1430.847485	717.7999878
1431.373829	718.5999756
1431.900118	724.5999756
1432.426353	713.5999756
1432.952532	719.2000122
1433.478655	725.2000122
1434.004724	719.0
1434.530738	721.0
1435.056696	721.5999756
1435.5826	724.2000122
1436.108448	722.0
1436.634241	720.0
1437.159979	720.2000122
1437.685662	719.0
1438.21129	716.4000244
1438.736863	718.4000244
1439.262381	722.2000122
1439.787843	721.2000122
1440.313251	717.0
1440.838603	716.5999756
1441.3639	723.2000122
1441.889143	716.7999878
1442.41433	721.2000122
1442.939462	720.5999756
1443.464539	716.2000122
1443.989561	717.2000122
1444.514528	717.7999878
1445.03944	719.7999878
1445.564297	715.0
1446.089099	718.4000244
1446.613846	717.4000244
1447.138537	716.7999878
1447.663174	715.7999878
1448.187756	717.2000122
1448.712282	720.2000122
1449.236754	718.7999878
1449.761171	718.5999756
1450.285532	721.2000122
1450.809839	713.4000244
1451.33409	714.0
1451.858287	719.0
1452.382428	710.2000122
1452.906515	717.4000244
1453.430546	717.5999756
1453.954523	716.4000244
1454.478444	713.4000244
1455.002311	719.2000122
1455.526123	713.4000244
1456.049879	715.4000244
1456.573581	712.0
1457.097227	710.5999756
1457.620819	717.0
1458.144356	719.5999756
1458.667837	716.0
1459.191264	711.4000244
1459.714636	717.5999756
1460.237952	718.4000244
1460.761214	717.4000244
1461.284421	714.7999878
1461.807573	717.2000122
1462.33067	713.0
1462.853712	714.7999878
1463.376699	716.2000122
1463.899632	718.5999756
1464.422509	716.2000122
1464.945331	713.4000244
1465.468099	716.5999756
1465.990811	709.4000244
1466.513469	716.7999878
1467.036071	715.0
1467.558619	715.0
1468.081112	713.2000122
1468.60355	714.4000244
1469.125933	712.4000244
1469.648261	711.4000244
1470.170534	713.0
1470.692752	712.7999878
1471.214916	711.0
1471.737024	712.0
1472.259078	714.2000122
1472.781077	716.5999756
1473.303021	715.7999878
1473.82491	711.7999878
1474.346744	711.5999756
1474.868523	714.2000122
1475.390248	714.7999878
1475.911917	715.4000244
1476.433532	715.7999878
1476.955092	717.5999756
1477.476597	711.0
1477.998047	713.2000122
1478.519442	715.0
1479.040783	714.5999756
1479.562068	712.5999756
1480.083299	712.7999878
1480.604475	712.0
1481.125596	708.5999756
1481.646663	712.7999878
1482.167674	711.4000244
1482.688631	711.2000122
1483.209533	712.7999878
1483.73038	712.0
1484.251172	713.0
1484.771909	708.5999756
1485.292592	711.0
1485.81322	711.0
1486.333793	713.2000122
1486.854311	712.0
1487.374775	713.0
1487.895183	716.5999756
1488.415537	709.5999756
1488.935836	710.2000122
1489.456081	716.5999756
1489.97627	708.2000122
1490.496405	711.5999756
1491.016485	713.0
1491.536511	714.4000244
1492.056481	712.4000244
1492.576397	710.7999878
1493.096258	709.2000122
1493.616064	712.4000244
1494.135816	714.0
1494.655513	716.0
1495.175155	716.7999878
1495.694742	716.4000244
1496.214274	711.0
1496.733752	707.7999878
1497.253175	713.4000244
1497.772544	708.7999878
1498.291858	709.7999878
1498.811116	712.4000244
1499.330321	711.2000122
1499.84947	719.0
1500.368565	713.5999756
1500.887605	712.5999756
1501.406591	711.7999878
1501.925521	709.7999878
1502.444397	710.0
1502.963219	712.2000122
1503.481985	711.7999878
1504.000697	714.5999756
1504.519355	712.5999756
1505.037957	714.5999756
1505.556505	713.0
1506.074999	710.2000122
1506.593437	709.5999756
1507.111821	712.5999756
1507.63015	717.5999756
1508.148425	709.7999878
1508.666645	710.7999878
1509.18481	714.2000122
1509.702921	712.2000122
1510.220977	714.5999756
1510.738979	717.7999878
1511.256925	711.7999878
1511.774817	713.4000244
1512.292655	710.7999878
1512.810438	712.7999878
1513.328166	713.7999878
1513.84584	710.2000122
1514.363459	712.2000122
1514.881023	705.5999756
1515.398533	705.7999878
1515.915988	711.2000122
1516.433389	716.0
1516.950734	711.2000122
1517.468026	708.0
1517.985263	708.2000122
1518.502445	709.0
1519.019572	708.4000244
1519.536645	707.5999756
1520.053664	707.7999878
1520.570628	709.7999878
1521.087537	710.0
1521.604392	710.0
1522.121192	711.2000122
1522.637937	714.0
1523.154628	713.5999756
1523.671265	713.0
1524.187847	709.2000122
1524.704374	707.4000244
1525.220847	709.5999756
1525.737265	714.5999756
1526.253629	709.4000244
1526.769938	712.7999878
1527.286192	711.4000244
1527.802392	713.2000122
1528.318538	711.2000122
1528.834629	707.5999756
1529.350666	707.4000244
1529.866648	710.0
1530.382575	708.7999878
1530.898448	708.7999878
1531.414266	708.4000244
1531.93003	708.2000122
1532.44574	711.4000244
1532.961395	709.5999756
1533.476995	708.2000122
1533.992541	712.7999878
1534.508033	706.2000122
1535.02347	710.7999878
1535.538852	711.4000244
1536.05418	706.7999878
1536.569454	707.7999878
1537.084673	715.2000122
1537.599837	709.2000122
1538.114947	707.7999878
1538.630003	710.0
1539.145004	711.7999878
1539.659951	710.7999878
1540.174843	710.7999878
1540.689681	712.4000244
1541.204465	712.4000244
1541.719194	707.2000122
1542.233868	712.5999756
1542.748488	710.0
1543.263054	710.7999878
1543.777565	709.2000122
1544.292022	706.5999756
1544.806424	711.7999878
1545.320772	709.7999878
1545.835066	710.0
1546.349305	711.2000122
1546.863489	711.5999756
1547.37762	708.7999878
1547.891696	709.2000122
1548.405717	711.2000122
1548.919684	709.4000244
1549.433597	711.5999756
1549.947455	707.5999756
1550.461259	714.2000122
1550.975009	709.4000244
1551.488704	709.0
1552.002345	711.7999878
1552.515931	711.4000244
1553.029463	710.4000244
1553.542941	709.4000244
1554.056364	709.4000244
1554.569733	708.7999878
1555.083048	707.4000244
1555.596308	708.0
1556.109514	708.5999756
1556.622665	707.7999878
1557.135762	714.5999756
1557.648805	713.2000122
1558.161794	713.2000122
1558.674728	711.7999878
1559.187608	708.5999756
1559.700433	706.7999878
1560.213205	711.4000244
1560.725921	714.2000122
1561.238584	711.2000122
1561.751192	712.7999878
1562.263746	711.5999756
1562.776246	709.5999756
1563.288691	709.4000244
1563.801082	709.4000244
1564.313419	710.0
1564.825701	703.5999756
1565.337929	713.0
1565.850103	709.5999756
1566.362223	711.0
1566.874288	709.5999756
1567.386299	712.0
1567.898256	707.0
1568.410158	708.5999756
1568.922007	709.0
1569.4338	713.0
1569.94554	705.5999756
1570.457226	715.4000244
1570.968857	709.2000122
1571.480434	705.7999878
1571.991956	705.7999878
1572.503425	711.2000122
1573.014839	705.7999878
1573.526199	709.5999756
1574.037505	707.5999756
1574.548756	705.5999756
1575.059953	710.7999878
1575.571096	712.2000122
1576.082185	709.4000244
1576.59322	711.0
1577.1042	714.2000122
1577.615126	709.0
1578.125998	706.5999756
1578.636816	709.2000122
1579.14758	711.0
1579.658289	709.7999878
1580.168944	711.0
1580.679545	707.2000122
1581.190092	705.4000244
1581.700585	710.2000122
1582.211023	711.5999756
1582.721407	709.0
1583.231737	711.5999756
1583.742013	711.5999756
1584.252235	709.2000122
1584.762403	708.7999878
1585.272516	706.7999878
1585.782575	710.2000122
1586.292581	708.5999756
1586.802532	710.0
1587.312428	707.0
1587.822271	710.2000122
1588.33206	707.7999878
1588.841794	709.7999878
1589.351474	708.7999878
1589.8611	706.5999756
1590.370672	714.7999878
1590.88019	710.2000122
1591.389654	709.5999756
1591.899064	703.0
1592.408419	705.5999756
