1042.414189	720.25
1042.980685	712.25
1043.547124	716.0
1044.113505	713.25
1044.679828	711.5
1045.246093	711.75
1045.8123	704.5
1046.378449	707.75
1046.94454	702.5
1047.510573	703.75
1048.076548	706.5
1048.642465	699.25
1049.208325	703.0
1049.774126	700.5
1050.339869	699.5
1050.905555	701.5
1051.471183	698.25
1052.036752	697.25
1052.602264	697.5
1053.167718	693.25
1053.733114	699.75
1054.298452	697.5
1054.863733	699.5
1055.428955	694.0
1055.994119	695.5
1056.559226	690.75
1057.124275	692.25
1057.689266	694.75
1058.254199	690.0
1058.819074	692.5
1059.383891	694.5
1059.94865	692.75
1060.513352	689.0
1061.077996	694.25
1061.642582	687.75
1062.20711	691.25
1062.77158	691.5
1063.335992	691.75
1063.900347	690.5
1064.464643	689.5
1065.028882	691.0
1065.593063	691.5
1066.157187	690.75
1066.721252	687.0
1067.28526	688.75
1067.84921	685.75
1068.413102	685.5
1068.976936	690.25
1069.540713	690.75
1070.104431	691.0
1070.668092	686.5
1071.231696	686.5
1071.795241	687.75
1072.358729	686.0
1072.922159	685.25
1073.485531	688.25
1074.048845	686.25
1074.612102	686.5
1075.175301	685.5
1075.738442	689.5
1076.301525	686.0
1076.864551	688.5
1077.427519	685.0
1077.990429	681.25
1078.553281	685.25
1079.116076	687.0
1079.678813	682.25
1080.241492	685.75
1080.804114	688.75
1081.366678	684.75
1081.929184	688.25
1082.491633	687.25
1083.054024	684.0
1083.616357	686.5
1084.178632	689.0
1084.74085	686.25
1085.30301	687.25
1085.865113	688.0
1086.427158	685.5
1086.989145	683.5
1087.551074	684.25
1088.112946	682.25
1088.67476	686.0
1089.236517	686.75
1089.798216	683.0
1090.359857	680.25
1090.92144	685.75
1091.482966	687.5
1092.044435	685.75
1092.605845	684.0
1093.167199	683.25
1093.728494	683.75
1094.289732	685.5
1094.850912	684.25
1095.412035	692.25
1095.9731	685.0
1096.534107	683.5
1097.095057	691.25
1097.65595	686.75
1098.216784	686.0
1098.777561	685.5
1099.338281	683.75
1099.898943	684.5
1100.459547	681.5
1101.020094	683.0
1101.580584	682.0
1102.141015	683.5
1102.701389	682.0
1103.261706	685.25
1103.821965	682.25
1104.382167	680.5
1104.942311	682.5
1105.502397	688.5
1106.062426	683.75
1106.622398	685.5
1107.182312	682.0
1107.742168	682.5
1108.301967	685.0
1108.861708	681.25
1109.421392	683.0
1109.981019	686.75
1110.540587	682.75
1111.100099	681.75
1111.659553	685.75
1112.218949	684.25
1112.778288	682.75
1113.33757	688.75
1113.896794	683.25
1114.45596	686.75
1115.015069	682.5
1115.574121	685.0
1116.133115	683.0
1116.692052	684.25
1117.250931	685.0
1117.809753	683.0
1118.368517	684.5
1118.927224	684.75
1119.485873	684.25
1120.044465	681.25
1120.603	682.75
1121.161477	681.75
1121.719897	684.25
1122.278259	686.5
1122.836564	678.75
1123.394812	683.5
1123.953002	682.5
1124.511135	684.25
1125.06921	683.75
1125.627228	683.75
1126.185189	681.5
1126.743092	680.5
1127.300938	689.0
1127.858726	682.25
1128.416457	681.0
1128.974131	686.0
1129.531748	688.0
1130.089307	684.0
1130.646808	681.5
1131.204252	684.75
1131.761639	684.25
1132.318969	683.75
1132.876241	683.75
1133.433456	683.75
1133.990614	680.0
1134.547714	683.5
1135.104757	687.25
1135.661743	684.5
1136.218671	683.5
1136.775542	689.0
1137.332356	681.75
1137.889112	684.25
1138.445811	686.0
1139.002453	681.75
1139.559037	683.75
1140.115565	684.0
1140.672035	682.0
1141.228447	683.25
1141.784803	683.5
1142.341101	682.0
1142.897342	684.75
1143.453525	684.0
1144.009651	684.0
1144.565721	686.75
1145.121732	682.75
1145.677687	685.0
1146.233584	683.0
1146.789424	683.25
1147.345207	684.5
1147.900933	681.5
1148.456601	685.5
1149.012212	682.0
1149.567766	681.25
1150.123263	690.0
1150.678702	683.75
1151.234085	685.25
1151.78941	690.25
1152.344678	686.0
1152.899888	685.5
1153.455042	684.25
1154.010138	679.75
1154.565177	684.0
1155.120159	683.25
1155.675084	683.25
1156.229951	682.0
1156.784762	683.5
1157.339515	682.0
1157.894211	685.25
1158.44885	687.75
1159.003432	684.5
1159.557956	684.5
1160.112424	687.0
1160.666834	685.25
1161.221187	683.75
1161.775483	679.5
1162.329722	681.0
1162.883904	681.0
1163.438029	682.0
1163.992096	679.25
1164.546107	683.0
1165.10006	682.0
1165.653956	681.75
1166.207795	683.25
1166.761577	682.25
1167.315302	679.5
1167.86897	685.0
1168.422581	686.25
1168.976134	684.25
1169.529631	684.25
1170.08307	684.75
1170.636453	680.25
1171.189778	684.5
1171.743046	685.0
1172.296257	682.25
1172.849412	686.5
1173.402509	685.0
1173.955549	680.0
1174.508532	678.5
1175.061458	683.25
1175.614327	682.75
1176.167138	683.5
1176.719893	681.75
1177.272591	681.75
1177.825232	682.5
1178.377816	681.75
1178.930342	686.75
1179.482812	679.75
1180.035225	681.25
1180.587581	684.25
1181.139879	681.75
1181.692121	681.5
1182.244306	682.25
1182.796434	681.75
1183.348504	682.5
1183.900518	681.5
1184.452475	685.5
1185.004375	681.25
1185.556218	684.75
1186.108004	682.75
1186.659733	681.75
1187.211405	680.5
1187.76302	683.5
1188.314578	678.25
1188.866079	682.5
1189.417523	681.5
1189.96891	679.5
1190.520241	678.75
1191.071514	678.5
1191.622731	683.25
1192.17389	681.5
1192.724993	682.75
1193.276039	705.75
1193.827027	680.25
1194.377959	682.75
1194.928834	685.25
1195.479653	681.0
1196.030414	679.25
1196.581118	679.25
1197.131766	683.5
1197.682356	682.5
1198.23289	683.0
1198.783367	683.25
1199.333786	683.0
1199.88415	680.5
1200.434456	685.25
1200.984705	682.25
1201.534898	687.75
1202.085033	683.5
1202.635112	681.5
1203.185134	684.0
1203.735099	678.5
1204.285007	680.25
1204.834859	680.5
1205.384653	685.5
1205.934391	683.5
1206.484072	686.5
1207.033696	683.5
1207.583263	684.0
1208.132774	683.0
1208.682228	680.75
1209.231624	680.0
1209.780965	682.25
1210.330248	685.5
1210.879474	684.0
1211.428644	685.25
1211.977757	682.0
1212.526813	685.0
1213.075813	685.75
1213.624755	683.0
1214.173641	682.5
1214.72247	679.25
1215.271242	685.0
1215.819958	683.25
1216.368617	683.75
1216.917219	680.75
1217.465764	685.0
1218.014253	682.75
1218.562685	683.0
1219.11106	683.25
1219.659378	682.75
1220.20764	685.25
1220.755845	682.0
1221.303993	685.0
1221.852085	687.25
1222.400119	683.0
1222.948097	685.25
1223.496019	683.25
1224.043883	683.0
1224.591691	683.0
1225.139443	685.5
1225.687137	682.5
1226.234775	684.0
1226.782357	685.5
1227.329881	679.75
1227.877349	685.0
1228.42476	681.5
1228.972115	683.75
1229.519413	687.25
1230.066654	685.5
1230.613839	683.0
1231.160967	682.75
1231.708038	688.5
1232.255053	683.5
1232.802011	684.25
1233.348912	685.75
1233.895757	684.25
1234.442545	680.75
1234.989277	690.0
1235.535951	687.75
1236.08257	680.5
1236.629131	680.0
1237.175636	684.75
1237.722085	685.0
1238.268477	683.75
1238.814812	680.75
1239.361091	683.25
1239.907313	678.25
1240.453478	682.0
1240.999587	680.25
1241.54564	682.25
1242.091636	680.25
1242.637575	684.0
1243.183457	682.25
1243.729284	683.25
1244.275053	680.0
1244.820766	682.0
1245.366423	686.25
1245.912022	685.25
1246.457566	683.0
1247.003053	684.25
1247.548483	681.25
1248.093857	685.5
1248.639174	682.5
1249.184435	679.75
1249.729639	679.25
1250.274787	684.0
1250.819878	685.5
1251.364912	684.25
1251.909891	680.25
1252.454812	683.75
1252.999677	685.5
1253.544486	685.0
1254.089238	680.5
1254.633934	683.0
1255.178573	683.0
1255.723156	678.5
1256.267682	681.5
1256.812152	680.75
1257.356565	680.0
1257.900922	681.75
1258.445223	678.75
1258.989467	682.25
1259.533654	680.25
1260.62186	681.5
1261.165878	679.5
1261.70984	679.25
1262.253745	681.0
1262.797594	680.25
1263.341386	683.75
1263.885123	682.5
1264.428802	683.5
1264.972425	685.25
1265.515992	701.25
1266.059503	715.5
1266.602957	704.0
1267.146354	691.75
1267.689696	686.5
1268.23298	685.0
1268.776209	683.25
1269.319381	682.5
1269.862497	680.0
1270.405556	680.5
1270.948559	678.75
1271.491506	682.0
1272.034396	683.0
1272.57723	680.0
1273.120007	679.5
1273.662728	680.0
1274.205393	680.5
1274.748002	679.5
1275.290554	680.0
1275.83305	681.75
1276.375489	679.0
1276.917872	678.5
1277.460199	685.25
1278.00247	682.5
1278.544684	681.5
1279.086842	679.25
1279.628943	679.5
1280.170989	681.75
1280.712978	683.75
1281.25491	685.75
1281.796787	679.0
1282.338607	681.0
1282.880371	682.75
1283.422078	683.75
1283.963729	691.25
1284.505324	691.0
1285.046863	705.25
1285.588345	807.75
1286.129772	1099.25
1286.671142	1086.75
1287.212455	784.25
1287.753713	701.0
1288.294914	689.5
1288.836059	685.25
1289.377147	683.75
1289.91818	684.25
1290.459156	684.0
1291.000076	680.5
1291.54094	681.75
1292.081747	682.75
1292.622499	681.0
1293.163194	677.0
1293.703833	677.75
1294.244415	678.25
1294.784942	679.0
1295.325412	680.25
1295.865826	680.5
1296.406184	678.25
1296.946486	679.0
1297.486731	684.25
1298.026921	682.75
1298.567054	677.0
1299.107131	677.25
1299.647152	680.75
1300.187116	679.25
1300.727025	682.25
1301.266877	680.25
1301.806673	677.5
1302.346413	678.75
1302.886097	677.25
1303.425725	681.75
1303.965297	679.25
1304.504812	677.5
1305.044272	678.0
1305.583675	680.25
1306.123022	678.5
1306.662313	681.75
1307.201548	677.5
1307.740727	677.5
1308.279849	680.25
1308.818916	676.5
1309.357926	679.75
1309.896881	678.25
1310.435779	678.75
1310.974621	677.25
1311.513407	678.5
1312.052137	680.75
1312.590811	681.75
1313.129429	680.25
1313.667991	678.0
1314.206497	675.75
1314.744946	681.5
1315.28334	682.25
1315.821678	682.5
1316.359959	678.75
1316.898184	680.5
1317.436354	680.5
1317.974467	678.25
1318.512525	677.75
1319.050526	679.75
1319.588471	681.0
1320.12636	680.25
1320.664194	677.5
1321.201971	678.25
1321.739692	682.25
1322.277357	681.25
1322.814967	678.75
1323.35252	680.75
1323.890017	684.25
1324.427458	677.75
1324.964843	680.0
1325.502173	682.5
1326.039446	681.75
1326.576663	678.5
1327.113824	680.0
1327.65093	680.75
1328.187979	679.5
1328.724972	679.75
1329.26191	679.25
1329.798791	679.0
1330.335617	678.5
1330.872386	678.5
1331.4091	679.25
1331.945758	673.0
1332.48236	679.0
1333.018905	678.25
1333.555395	680.5
1334.091829	681.75
1334.628207	679.25
1335.164529	680.75
1335.700796	680.75
1336.237006	677.75
1336.77316	677.5
1337.309259	681.0
1337.845301	678.75
1338.381288	681.25
1338.917219	677.5
1339.453094	680.75
1339.988913	677.75
1340.524676	680.0
1341.060383	674.75
1341.596034	678.0
1342.13163	680.75
1342.66717	681.25
1343.202653	675.5
1343.738081	677.5
1344.273453	679.75
1344.80877	680.5
1345.34403	679.5
1345.879235	682.75
1346.414383	681.75
1346.949476	680.5
1347.484513	677.25
1348.019494	677.0
1348.55442	676.5
1349.089289	677.5
1349.624103	675.75
1350.158861	683.25
1350.693563	679.5
1351.228209	675.5
1351.7628	681.75
1352.297334	679.0
1352.831813	677.0
1353.366236	678.5
1353.900604	682.25
1354.434915	677.5
1354.969171	681.5
1355.503371	677.25
1356.037515	679.5
1356.571604	675.75
1357.105636	680.25
1357.639613	678.5
1358.173535	678.75
1358.7074	679.0
1359.24121	680.5
1359.774964	680.25
1360.308662	677.0
1360.842304	681.5
1361.375891	681.5
1361.909422	680.25
1362.442897	678.5
1362.976317	677.5
1363.50968	678.75
1364.042989	677.5
1364.576241	681.25
1365.109438	680.5
1365.642579	680.25
1366.175664	680.75
1366.708693	680.75
1367.241667	682.5
1367.774585	684.25
1368.307448	680.5
1368.840255	684.5
1369.373006	681.75
1369.905701	679.75
1370.438341	684.25
1370.970925	692.5
1371.503454	688.0
1372.035926	682.5
1372.568344	681.75
1373.100705	682.0
1373.633011	676.25
1374.165261	678.25
1374.697456	676.5
1375.229595	678.0
1375.761678	678.75
1376.293705	679.0
1376.825677	679.5
1377.357594	680.75
1377.889455	681.0
1378.42126	681.0
1378.953009	679.5
1379.484703	678.75
1380.016342	679.0
1380.547924	682.0
1381.079452	679.75
1381.610923	678.0
1382.142339	679.25
1382.673699	679.75
1383.205004	680.5
1383.736253	680.25
1384.267447	680.5
1384.798585	678.25
1385.329668	683.0
1385.860695	683.5
1386.391666	682.0
1386.922582	689.75
1387.453442	692.0
1387.984247	699.0
1388.514996	751.75
1389.04569	1108.0
1389.576328	1527.5
1390.10691	949.25
1390.637437	726.0
1391.167909	696.25
1391.698325	689.5
1392.228685	681.75
1392.75899	680.5
1393.28924	679.25
1393.819434	681.5
1394.349572	683.75
1394.879655	679.25
1395.409683	683.25
1395.939655	679.75
1396.469571	681.75
1396.999432	678.75
1397.529237	680.25
1398.058987	678.25
1398.588682	680.0
1399.118321	678.25
1399.647905	680.75
1400.177433	679.0
1400.706906	678.25
1401.236323	683.0
1401.765685	682.75
1402.294991	678.5
1402.824242	677.25
1403.353437	679.75
1403.882577	678.0
1404.411662	678.25
1404.940691	678.25
1405.469665	683.0
1405.998583	676.25
1406.527446	677.25
1407.056253	679.5
1407.585005	681.25
1408.113702	679.25
1408.642343	679.25
1409.170929	683.75
1409.69946	692.0
1410.227935	715.25
1410.756354	753.0
1411.284719	718.0
1411.813028	688.5
1412.341281	681.75
1412.869479	679.5
1413.397622	677.5
1413.92571	677.0
1414.453742	679.0
1414.981718	681.25
1415.50964	693.5
1416.037506	678.5
1416.565316	681.0
1417.093072	682.75
1417.620772	680.5
1418.148416	679.5
1418.676005	680.0
1419.203539	676.75
1419.731018	678.0
1420.258441	677.5
1420.785809	676.25
1421.313122	680.0
1421.840379	681.0
1422.367582	676.5
1422.894728	679.0
1423.42182	679.0
1423.948856	678.75
1424.475837	679.0
1425.002762	678.5
1425.529633	679.0
1426.056448	682.25
1426.583207	683.25
1427.109912	680.75
1427.636561	675.5
1428.163155	682.5
1428.689694	681.5
1429.216177	677.25
1429.742605	679.0
1430.268978	678.75
1430.795296	676.75
1431.321558	678.0
1431.847765	681.0
1432.373917	680.0
1432.900014	680.25
1433.426056	679.75
1433.952042	680.25
1434.477973	680.0
1435.003849	677.25
1435.529669	677.25
1436.055435	681.5
1436.581145	679.0
1437.1068	677.0
1437.632399	680.25
1438.157944	677.0
1438.683433	679.75
1439.208868	676.0
1439.734247	679.75
1440.25957	677.5
1440.784839	680.5
1441.310053	680.0
1441.835211	679.0
1442.360314	678.5
1442.885362	673.5
1443.410355	678.0
1443.935292	676.75
1444.460175	680.25
1444.985002	672.75
1445.509774	679.0
1446.034491	673.5
1446.559153	678.75
1447.08376	678.0
1447.608312	676.75
1448.132808	676.25
1448.65725	677.25
1449.181636	678.0
1449.705967	679.0
1450.230243	677.0
1450.754464	678.5
1451.27863	676.25
1451.802741	678.25
1452.326797	679.75
1452.850797	674.0
1453.374743	674.75
1453.898633	677.25
1454.422468	678.75
1454.946249	676.5
1455.469974	675.0
1455.993644	674.0
1456.517259	674.5
1457.040819	676.5
1457.564324	677.5
1458.087773	674.0
1458.611168	675.0
1459.134508	679.5
1459.657793	676.5
1460.181022	675.0
1460.704197	677.5
1461.227316	675.5
1461.750381	676.75
1462.27339	673.5
1462.796345	683.5
1463.842089	698.0
1464.364878	678.75
1464.887613	678.75
1465.410292	676.75
1465.932916	676.5
1466.455486	672.0
1466.978	672.25
1467.50046	676.25
1468.022864	675.25
1468.545214	675.25
1469.067508	678.0
1469.589748	677.0
1470.111932	678.75
1470.634062	675.25
1471.156136	674.5
1471.678156	677.75
1472.20012	680.25
1472.72203	674.5
1473.243885	673.0
1473.765685	674.25
1474.28743	671.75
1474.80912	675.0
1475.330755	677.5
1475.852335	678.25
1476.37386	677.75
1476.89533	674.75
1477.416745	676.25
1477.938106	674.5
1478.459411	677.0
1478.980662	678.0
1479.501857	673.5
1480.022998	677.25
1480.544084	676.5
1481.065115	677.0
1481.586091	676.5
1482.107012	675.5
1482.627878	679.0
1483.14869	677.25
1483.669446	676.5
1484.190148	676.5
1484.710794	679.25
1485.231386	679.5
1485.751923	675.75
1486.272406	675.5
1486.792833	677.5
1487.313205	675.5
1487.833523	675.75
1488.353786	675.75
1488.873994	675.75
1489.394147	676.75
1489.914245	676.25
1490.434288	675.25
1490.954277	677.75
1491.474211	676.0
1491.99409	677.0
1492.513914	673.75
1493.033683	674.75
1493.553398	673.75
1494.073057	674.0
1494.592662	676.0
1495.112212	675.75
1495.631708	676.25
1496.151148	676.5
1496.670534	676.0
1497.189865	674.75
1497.709141	676.25
1498.228362	674.75
1498.747529	672.75
1499.266641	675.25
1499.785698	684.75
1500.3047	676.25
1500.823648	677.5
1501.34254	674.75
1501.861379	674.75
1502.380162	674.75
1502.89889	675.5
1503.417564	676.25
1503.936183	677.25
1504.454748	672.5
1504.973257	676.75
1505.491712	675.0
1506.010112	673.5
1506.528458	676.75
1507.046748	675.75
1507.564984	674.25
1508.083166	675.0
1508.601292	677.0
1509.119364	677.25
1509.637381	678.75
1510.155344	679.0
1510.673252	687.5
1511.191105	674.25
1511.708903	676.25
1512.226647	675.75
1512.744336	677.0
1513.261971	674.75
1513.77955	674.5
1514.297076	678.25
1514.814546	675.75
1515.331962	674.5
1515.849323	672.0
1516.366629	678.5
1516.883881	679.25
1517.401078	671.75
1517.918221	677.75
1518.435309	677.75
1518.952342	678.0
1519.469321	674.5
1519.986245	678.25
1520.503114	674.0
1521.019929	676.0
1521.536689	677.5
1522.053395	676.25
1522.570046	679.0
1523.086642	676.75
1523.603184	679.0
1524.119671	678.5
1524.636103	674.25
1525.152481	675.75
1525.668805	675.5
1526.185073	699.75
1526.701288	692.0
1527.217447	678.75
1527.733552	673.25
1528.249603	675.25
1528.765599	675.5
1529.28154	676.25
1529.797427	674.0
1530.313259	673.75
1530.829037	673.75
1531.34476	674.0
1531.860429	677.0
1532.376043	673.0
1532.891602	674.5
1533.407107	676.0
1533.922558	674.25
1534.437954	674.25
1534.953295	676.25
1535.468582	677.25
1535.983815	673.25
1536.498993	676.5
1537.014116	677.25
1537.529185	674.75
1538.044199	676.25
1538.559159	676.5
1539.074064	673.75
1539.588915	674.75
1540.103712	678.75
1540.618454	674.5
1541.133141	675.5
1541.647774	676.25
1542.162353	676.0
1542.676877	676.25
1543.191346	676.75
1543.705761	674.75
1544.220122	674.25
1544.734428	677.5
1545.24868	677.0
1545.762877	676.0
1546.27702	676.75
1546.791109	673.5
1547.305143	674.0
1547.819122	677.25
1548.333047	676.0
1548.846918	673.75
1549.360734	678.0
1549.874496	676.25
1550.388204	676.5
1550.901857	674.5
1551.415455	678.75
1551.929	677.0
1552.442489	673.75
1552.955925	678.25
1553.469306	678.0
1553.982632	675.0
1554.495905	677.25
1555.009123	678.25
1555.522286	676.75
1556.035395	678.25
1556.54845	678.5
1557.06145	677.5
1557.574396	676.5
1558.087288	679.25
1558.600125	674.75
1559.112908	676.25
1559.625637	676.0
1560.138311	675.0
1560.650931	677.75
1561.163497	674.5
1561.676008	676.0
1562.188465	673.75
1562.700867	680.0
1563.213216	677.25
1563.725509	672.25
1564.237749	679.5
1564.749934	680.0
1565.262065	678.0
1565.774142	676.0
1566.286164	679.25
1566.798132	677.25
1567.310046	684.25
1567.821906	677.25
1568.333711	680.0
1568.845462	678.25
1569.357158	677.0
1569.868801	676.0
1570.380389	677.5
1570.891922	677.5
1571.403402	677.0
1571.914827	675.5
1572.426198	677.75
1572.937515	674.0
1573.448777	672.5
1573.959985	677.75
1574.471139	676.75
1574.982239	675.25
1575.493285	680.25
1576.004276	677.0
1576.515213	677.5
1577.026096	674.5
1577.536924	673.5
1578.047698	674.75
1578.558419	674.0
1579.069084	671.5
1579.579696	675.0
1580.090254	672.0
1580.600757	677.0
1581.111206	670.75
1581.621601	676.0
1582.131941	676.25
1582.642228	674.0
1583.15246	674.75
1583.662638	674.0
1584.172762	677.25
1584.682832	673.5
1585.192847	675.5
1585.702809	673.75
1586.212716	674.0
1586.722569	675.75
1587.232368	676.25
1587.742113	672.25
1588.251803	674.25
1588.76144	674.25
1589.271022	672.25
1589.78055	672.75
1590.290024	672.5
1590.799444	676.5
1591.30881	672.0
1591.818121	674.25
1592.327379	675.5
