1042.414189	703.0
1042.980685	704.0
1043.547124	699.25
1044.113505	703.25
1044.679828	698.5
1045.246093	694.0
1045.8123	691.0
1046.378449	693.25
1046.94454	692.75
1047.510573	692.5
1048.076548	687.0
1048.642465	687.25
1049.208325	690.75
1049.774126	685.25
1050.339869	685.75
1050.905555	685.5
1051.471183	687.75
1052.036752	681.0
1052.602264	682.25
1053.167718	688.5
1053.733114	682.5
1054.298452	682.5
1054.863733	683.5
1055.428955	678.75
1055.994119	680.0
1056.559226	680.25
1057.124275	682.0
1057.689266	680.75
1058.254199	682.0
1058.819074	679.75
1059.383891	679.0
1059.94865	677.75
1060.513352	676.0
1061.077996	680.0
1061.642582	681.5
1062.20711	676.25
1062.77158	679.5
1063.335992	680.5
1063.900347	683.25
1064.464643	679.25
1065.028882	677.5
1065.593063	682.5
1066.157187	679.5
1066.721252	675.25
1067.28526	674.5
1067.84921	674.0
1068.413102	675.0
1068.976936	681.25
1069.540713	676.25
1070.104431	684.25
1070.668092	676.5
1071.231696	677.25
1071.795241	674.75
1072.358729	676.0
1072.922159	678.75
1073.485531	674.75
1074.048845	675.75
1074.612102	676.5
1075.175301	674.0
1075.738442	679.75
1076.301525	676.0
1076.864551	677.5
1077.427519	677.0
1077.990429	674.25
1078.553281	676.25
1079.116076	674.5
1079.678813	675.0
1080.241492	675.25
1080.804114	675.75
1081.366678	673.0
1081.929184	679.25
1082.491633	677.5
1083.054024	676.75
1083.616357	677.5
1084.178632	672.75
1084.74085	672.75
1085.30301	675.0
1085.865113	678.25
1086.427158	675.75
1086.989145	673.5
1087.551074	677.75
1088.112946	673.75
1088.67476	675.5
1089.236517	676.25
1089.798216	672.25
1090.359857	678.0
1090.92144	677.0
1091.482966	676.0
1092.044435	675.25
1092.605845	673.25
1093.167199	678.5
1093.728494	673.0
1094.289732	671.5
1094.850912	672.75
1095.412035	680.75
1095.9731	673.0
1096.534107	675.0
1097.095057	684.75
1097.65595	675.5
1098.216784	671.0
1098.777561	673.75
1099.338281	674.75
1099.898943	672.5
1100.459547	673.75
1101.020094	677.25
1101.580584	673.0
1102.141015	672.75
1102.701389	675.0
1103.261706	673.5
1103.821965	678.25
1104.382167	671.5
1104.942311	677.75
1105.502397	676.5
1106.062426	672.5
1106.622398	675.5
1107.182312	675.0
1107.742168	674.0
1108.301967	671.0
1108.861708	672.25
1109.421392	675.25
1109.981019	671.25
1110.540587	674.25
1111.100099	672.75
1111.659553	674.0
1112.218949	673.5
1112.778288	672.75
1113.33757	670.5
1113.896794	675.75
1114.45596	673.75
1115.015069	676.25
1115.574121	671.25
1116.133115	673.75
1116.692052	674.75
1117.250931	672.0
1117.809753	670.0
1118.368517	671.25
1118.927224	675.75
1119.485873	674.25
1120.044465	672.75
1120.603	673.25
1121.161477	673.0
1121.719897	672.75
1122.278259	671.0
1122.836564	671.5
1123.394812	678.0
1123.953002	674.25
1124.511135	669.5
1125.06921	670.25
1125.627228	671.25
1126.185189	673.25
1126.743092	673.5
1127.300938	677.0
1127.858726	672.5
1128.416457	675.75
1128.974131	673.0
1129.531748	669.0
1130.089307	671.75
1130.646808	672.5
1131.204252	673.75
1131.761639	673.5
1132.318969	673.0
1132.876241	675.0
1133.433456	674.5
1133.990614	672.0
1134.547714	676.25
1135.104757	674.0
1135.661743	674.25
1136.218671	675.0
1136.775542	674.25
1137.332356	671.75
1137.889112	672.75
1138.445811	673.75
1139.002453	675.25
1139.559037	673.25
1140.115565	673.0
1140.672035	675.25
1141.228447	669.5
1141.784803	672.25
1142.341101	675.25
1142.897342	675.0
1143.453525	671.25
1144.009651	669.0
1144.565721	674.75
1145.121732	674.5
1145.677687	673.25
1146.233584	677.5
1146.789424	675.25
1147.345207	673.75
1147.900933	675.5
1148.456601	674.75
1149.012212	670.5
1149.567766	673.5
1150.123263	670.25
1150.678702	672.5
1151.234085	674.75
1151.78941	675.0
1152.344678	674.0
1152.899888	671.25
1153.455042	673.5
1154.010138	670.0
1154.565177	674.25
1155.120159	672.75
1155.675084	675.75
1156.229951	676.0
1156.784762	672.5
1157.339515	671.75
1157.894211	672.5
1158.44885	672.5
1159.003432	673.0
1159.557956	670.5
1160.112424	672.25
1160.666834	673.5
1161.221187	673.25
1161.775483	673.75
1162.329722	672.5
1162.883904	675.25
1163.438029	671.5
1163.992096	674.25
1164.546107	674.0
1165.10006	672.5
1165.653956	669.0
1166.207795	674.25
1166.761577	668.25
1167.315302	671.25
1167.86897	674.75
1168.422581	673.0
1168.976134	670.5
1169.529631	671.75
1170.08307	668.25
1170.636453	675.75
1171.189778	672.5
1171.743046	670.25
1172.296257	671.25
1172.849412	671.5
1173.402509	672.25
1173.955549	672.25
1174.508532	672.25
1175.061458	671.75
1175.614327	672.25
1176.167138	672.25
1176.719893	672.0
1177.272591	673.75
1177.825232	672.5
1178.377816	675.75
1178.930342	672.75
1179.482812	677.0
1180.035225	674.75
1180.587581	671.0
1181.139879	673.5
1181.692121	671.75
1182.244306	673.25
1182.796434	672.0
1183.348504	672.5
1183.900518	674.5
1184.452475	672.75
1185.004375	670.0
1185.556218	675.5
1186.108004	670.25
1186.659733	669.5
1187.211405	671.75
1187.76302	674.75
1188.314578	673.5
1188.866079	674.25
1189.417523	670.5
1189.96891	670.0
1190.520241	675.25
1191.071514	671.75
1191.622731	672.25
1192.17389	671.25
1192.724993	672.5
1193.276039	695.75
1193.827027	671.75
1194.377959	669.75
1194.928834	670.25
1195.479653	675.5
1196.030414	670.25
1196.581118	673.0
1197.131766	672.0
1197.682356	672.5
1198.23289	671.5
1198.783367	671.5
1199.333786	670.5
1199.88415	673.0
1200.434456	670.75
1200.984705	673.75
1201.534898	672.75
1202.085033	675.0
1202.635112	670.5
1203.185134	674.75
1203.735099	673.0
1204.285007	675.75
1204.834859	673.25
1205.384653	670.75
1205.934391	668.5
1206.484072	671.25
1207.033696	671.75
1207.583263	670.25
1208.132774	672.5
1208.682228	671.0
1209.231624	671.25
1209.780965	671.25
1210.330248	673.0
1210.879474	672.25
1211.428644	669.0
1211.977757	674.25
1212.526813	671.25
1213.075813	673.5
1213.624755	671.0
1214.173641	672.25
1214.72247	673.0
1215.271242	671.75
1215.819958	675.5
1216.368617	674.5
1216.917219	674.0
1217.465764	672.0
1218.014253	672.5
1218.562685	675.25
1219.11106	673.0
1219.659378	673.0
1220.20764	671.75
1220.755845	671.75
1221.303993	671.5
1221.852085	674.5
1222.400119	676.25
1222.948097	670.75
1223.496019	673.5
1224.043883	673.5
1224.591691	674.5
1225.139443	677.5
1225.687137	673.25
1226.234775	673.5
1226.782357	672.0
1227.329881	675.0
1227.877349	670.75
1228.42476	670.25
1228.972115	677.75
1229.519413	671.75
1230.066654	673.75
1230.613839	669.25
1231.160967	673.25
1231.708038	672.5
1232.255053	674.25
1232.802011	671.75
1233.348912	671.5
1233.895757	671.0
1234.442545	672.0
1234.989277	673.0
1235.535951	672.25
1236.08257	672.5
1236.629131	675.25
1237.175636	673.5
1237.722085	670.75
1238.268477	672.5
1238.814812	672.25
1239.361091	674.0
1239.907313	670.75
1240.453478	673.25
1240.999587	673.0
1241.54564	670.75
1242.091636	671.75
1242.637575	673.75
1243.183457	673.75
1243.729284	671.25
1244.275053	673.0
1244.820766	672.5
1245.366423	670.25
1245.912022	668.25
1246.457566	672.0
1247.003053	670.0
1247.548483	672.75
1248.093857	670.75
1248.639174	676.0
1249.184435	671.25
1249.729639	672.0
1250.274787	672.5
1250.819878	671.25
1251.364912	674.5
1251.909891	670.0
1252.454812	672.0
1252.999677	672.0
1253.544486	674.5
1254.089238	673.25
1254.633934	674.75
1255.178573	671.75
1255.723156	676.0
1256.267682	676.25
1256.812152	672.0
1257.356565	673.25
1257.900922	670.75
1258.445223	671.75
1258.989467	670.75
1259.533654	673.25
1260.077785	684.0
1260.62186	670.5
1261.165878	673.0
1261.70984	673.0
1262.253745	672.0
1262.797594	672.5
1263.341386	670.75
1263.885123	676.0
1264.428802	676.25
1264.972425	677.0
1265.515992	675.5
1266.059503	684.25
1266.602957	675.0
1267.146354	673.5
1267.689696	673.0
1268.23298	676.0
1268.776209	675.0
1269.319381	673.25
1269.862497	672.5
1270.405556	673.25
1270.948559	672.25
1271.491506	672.25
1272.034396	672.75
1272.57723	670.5
1273.120007	672.25
1273.662728	669.75
1274.205393	672.5
1274.748002	673.75
1275.290554	674.0
1275.83305	672.25
1276.375489	674.0
1276.917872	671.5
1277.460199	672.5
1278.00247	673.75
1278.544684	672.5
1279.086842	670.0
1279.628943	671.5
1280.170989	675.0
1280.712978	673.0
1281.25491	671.5
1281.796787	675.25
1282.338607	671.75
1282.880371	672.5
1283.422078	676.75
1283.963729	674.5
1284.505324	675.75
1285.046863	679.5
1285.588345	706.0
1286.129772	784.25
1286.671142	771.25
1287.212455	700.75
1287.753713	679.25
1288.294914	674.5
1288.836059	673.5
1289.377147	675.25
1289.91818	674.0
1290.459156	668.5
1291.000076	670.75
1291.54094	675.25
1292.081747	671.25
1292.622499	671.5
1293.163194	670.25
1293.703833	673.25
1294.244415	671.25
1294.784942	673.75
1295.325412	670.25
1295.865826	669.75
1296.406184	669.75
1296.946486	670.5
1297.486731	671.5
1298.026921	672.0
1298.567054	670.0
1299.107131	670.5
1299.647152	674.25
1300.187116	671.75
1300.727025	671.5
1301.266877	671.75
1301.806673	673.75
1302.346413	673.25
1302.886097	673.25
1303.425725	674.5
1303.965297	674.5
1304.504812	671.75
1305.044272	671.75
1305.583675	673.5
1306.123022	673.25
1306.662313	670.5
1307.201548	674.25
1307.740727	672.25
1308.279849	673.5
1308.818916	675.75
1309.357926	672.5
1309.896881	672.0
1310.435779	674.25
1310.974621	670.5
1311.513407	671.5
1312.052137	676.25
1312.590811	668.5
1313.129429	673.0
1313.667991	673.75
1314.206497	670.75
1314.744946	672.25
1315.28334	670.0
1315.821678	672.0
1316.359959	675.5
1316.898184	671.5
1317.436354	671.75
1317.974467	673.25
1318.512525	672.25
1319.050526	672.0
1319.588471	672.75
1320.12636	671.75
1320.664194	671.0
1321.201971	673.75
1321.739692	672.25
1322.277357	671.75
1322.814967	672.0
1323.35252	674.5
1323.890017	676.25
1324.427458	672.5
1324.964843	673.25
1325.502173	675.5
1326.039446	674.0
1326.576663	675.5
1327.113824	670.0
1327.65093	674.25
1328.187979	672.0
1328.724972	673.5
1329.26191	674.5
1329.798791	672.0
1330.335617	673.75
1330.872386	671.25
1331.4091	671.75
1331.945758	671.5
1332.48236	671.75
1333.018905	675.75
1333.555395	672.25
1334.091829	673.75
1334.628207	671.5
1335.164529	671.5
1335.700796	670.75
1336.237006	675.0
1336.77316	673.25
1337.309259	671.25
1337.845301	674.25
1338.381288	672.0
1338.917219	671.0
1339.453094	672.25
1339.988913	672.5
1340.524676	669.75
1341.060383	670.25
1341.596034	670.0
1342.13163	673.0
1342.66717	672.25
1343.202653	671.5
1343.738081	674.0
1344.273453	676.0
1344.80877	670.75
1345.34403	670.75
1345.879235	672.25
1346.414383	672.5
1346.949476	672.5
1347.484513	670.75
1348.019494	669.5
1348.55442	671.75
1349.089289	668.5
1349.624103	671.75
1350.158861	670.75
1350.693563	670.5
1351.228209	669.5
1351.7628	674.25
1352.297334	676.75
1352.831813	673.0
1353.366236	672.75
1353.900604	672.5
1354.434915	672.75
1354.969171	672.75
1355.503371	672.0
1356.037515	671.5
1356.571604	673.5
1357.105636	671.75
1357.639613	673.5
1358.173535	670.25
1358.7074	670.25
1359.24121	671.75
1359.774964	672.25
1360.308662	671.5
1360.842304	671.75
1361.375891	673.25
1361.909422	676.0
1362.442897	674.0
1362.976317	670.5
1363.50968	671.25
1364.042989	670.75
1364.576241	670.5
1365.109438	670.75
1365.642579	669.25
1366.175664	671.25
1366.708693	672.0
1367.241667	673.25
1367.774585	671.75
1368.307448	674.75
1368.840255	674.5
1369.373006	674.75
1369.905701	670.5
1370.438341	669.5
1370.970925	674.75
1371.503454	674.5
1372.035926	671.25
1372.568344	674.25
1373.100705	669.5
1373.633011	672.5
1374.165261	672.0
1374.697456	673.75
1375.229595	670.25
1375.761678	669.0
1376.293705	674.25
1376.825677	672.75
1377.357594	671.0
1377.889455	671.5
1378.42126	674.5
1378.953009	671.0
1379.484703	672.5
1380.016342	669.75
1380.547924	672.25
1381.079452	668.25
1381.610923	670.0
1382.142339	676.25
1382.673699	672.5
1383.205004	673.5
1383.736253	674.75
1384.267447	673.25
1384.798585	673.25
1385.329668	671.5
1385.860695	673.75
1386.391666	670.5
1386.922582	679.5
1387.453442	677.5
1387.984247	674.25
1388.514996	691.0
1389.04569	779.25
1389.576328	888.25
1390.10691	742.25
1390.637437	683.0
1391.167909	677.5
1391.698325	674.5
1392.228685	675.0
1392.75899	673.5
1393.28924	672.75
1393.819434	671.75
1394.349572	671.5
1394.879655	670.5
1395.409683	670.5
1395.939655	675.75
1396.469571	672.75
1396.999432	674.5
1397.529237	673.5
1398.058987	673.0
1398.588682	672.25
1399.118321	671.5
1399.647905	670.0
1400.177433	671.5
1400.706906	675.5
1401.236323	669.75
1401.765685	670.25
1402.294991	672.75
1402.824242	675.75
1403.353437	675.25
1403.882577	672.25
1404.411662	672.5
1404.940691	674.25
1405.469665	673.0
1405.998583	672.0
1406.527446	671.25
1407.056253	671.75
1407.585005	672.25
1408.113702	672.25
1408.642343	673.0
1409.170929	672.5
1409.69946	676.25
1410.227935	684.25
1410.756354	690.25
1411.284719	683.75
1411.813028	672.75
1412.341281	674.5
1412.869479	669.75
1413.397622	671.5
1413.92571	673.25
1414.453742	670.0
1414.981718	673.5
1415.50964	688.75
1416.037506	670.0
1416.565316	671.25
1417.093072	674.0
1417.620772	672.25
1418.148416	668.75
1418.676005	670.5
1419.203539	670.5
1419.731018	672.25
1420.258441	672.0
1420.785809	672.75
1421.313122	669.0
1421.840379	674.0
1422.367582	671.5
1422.894728	669.75
1423.42182	671.0
1423.948856	671.5
1424.475837	672.0
1425.002762	675.0
1425.529633	670.5
1426.056448	671.75
1426.583207	674.0
1427.109912	674.25
1427.636561	671.75
1428.163155	672.0
1428.689694	671.5
1429.216177	673.75
1429.742605	671.75
1430.268978	672.5
1430.795296	669.75
1431.321558	673.0
1431.847765	670.75
1432.373917	672.75
1432.900014	673.75
1433.426056	674.0
1433.952042	674.25
1434.477973	674.25
1435.003849	671.25
1435.529669	670.25
1436.055435	671.5
1436.581145	672.5
1437.1068	671.75
1437.632399	671.75
1438.157944	669.75
1438.683433	670.5
1439.208868	671.5
1439.734247	669.5
1440.25957	671.0
1440.784839	671.25
1441.310053	671.75
1441.835211	672.25
1442.360314	675.5
1442.885362	668.5
1443.410355	676.0
1443.935292	673.5
1444.460175	673.25
1444.985002	671.5
1445.509774	673.0
1446.034491	672.0
1446.559153	677.5
1447.08376	674.0
1447.608312	671.75
1448.132808	672.25
1448.65725	674.75
1449.181636	671.0
1449.705967	671.5
1450.230243	672.0
1450.754464	670.0
1451.27863	672.5
1451.802741	673.5
1452.326797	672.25
1452.850797	669.75
1453.374743	671.75
1453.898633	673.0
1454.422468	673.75
1454.946249	675.75
1455.469974	674.5
1455.993644	670.75
1456.517259	671.0
1457.040819	671.25
1457.564324	673.75
1458.087773	669.25
1458.611168	673.0
1459.134508	673.25
1459.657793	671.75
1460.181022	669.25
1460.704197	672.0
1461.227316	675.25
1461.750381	668.0
1462.27339	671.5
1462.796345	675.0
1463.319244	683.25
1463.842089	677.25
1464.364878	671.5
1464.887613	670.75
1465.410292	672.25
1465.932916	669.25
1466.455486	672.0
1466.978	671.0
1467.50046	673.5
1468.022864	674.0
1468.545214	669.25
1469.067508	671.25
1469.589748	672.75
1470.111932	673.25
1470.634062	669.5
1471.156136	670.5
1471.678156	673.25
1472.20012	673.75
1472.72203	673.0
1473.243885	672.5
1473.765685	674.75
1474.28743	668.5
1474.80912	671.5
1475.330755	669.5
1475.852335	673.75
1476.37386	673.0
1476.89533	672.75
1477.416745	671.75
1477.938106	667.5
1478.459411	671.25
1478.980662	672.0
1479.501857	670.75
1480.022998	671.5
1480.544084	670.25
1481.065115	672.25
1481.586091	669.5
1482.107012	669.75
1482.627878	673.0
1483.14869	669.25
1483.669446	669.0
1484.190148	666.75
1484.710794	672.25
1485.231386	671.0
1485.751923	671.25
1486.272406	673.25
1486.792833	670.5
1487.313205	669.0
1487.833523	670.75
1488.353786	671.0
1488.873994	669.75
1489.394147	672.0
1489.914245	671.25
1490.434288	675.5
1490.954277	671.0
1491.474211	674.75
1491.99409	672.5
1492.513914	672.5
1493.033683	670.0
1493.553398	669.5
1494.073057	670.5
1494.592662	671.5
1495.112212	669.0
1495.631708	667.5
1496.151148	672.25
1496.670534	672.0
1497.189865	673.0
1497.709141	671.75
1498.228362	675.0
1498.747529	668.5
1499.266641	672.5
1499.785698	683.0
1500.3047	669.5
1500.823648	668.25
1501.34254	670.25
1501.861379	670.75
1502.380162	671.5
1502.89889	671.75
1503.417564	671.75
1503.936183	671.5
1504.454748	671.0
1504.973257	669.25
1505.491712	671.75
1506.010112	674.0
1506.528458	668.5
1507.046748	669.25
1507.564984	670.25
1508.083166	668.5
1508.601292	672.25
1509.119364	670.75
1509.637381	672.5
1510.155344	672.0
1510.673252	684.0
1512.226647	870.75
1512.744336	671.0
1513.261971	673.25
1513.77955	670.5
1514.297076	672.25
1514.814546	668.75
1515.331962	672.0
1515.849323	672.75
1516.366629	673.25
1516.883881	672.25
1517.401078	671.25
1517.918221	670.75
1518.435309	672.0
1518.952342	669.25
1519.469321	668.75
1519.986245	671.75
1520.503114	672.0
1521.019929	673.25
1521.536689	670.0
1522.053395	669.5
1522.570046	671.5
1523.086642	671.5
1523.603184	671.25
1524.119671	675.25
1524.636103	669.0
1525.152481	669.25
1525.668805	671.75
1526.185073	680.5
1526.701288	681.75
1527.217447	673.75
1527.733552	671.25
1528.249603	670.5
1528.765599	673.25
1529.28154	671.0
1529.797427	673.25
1530.313259	665.5
1530.829037	671.25
1531.34476	671.0
1531.860429	668.5
1532.376043	670.0
1532.891602	671.0
1533.407107	668.25
1533.922558	669.0
1534.437954	670.75
1534.953295	671.75
1535.468582	670.75
1535.983815	670.25
1536.498993	671.25
1537.014116	669.5
1537.529185	669.25
1538.044199	674.0
1538.559159	673.0
1539.074064	671.75
1539.588915	670.75
1540.103712	673.25
1540.618454	670.0
1541.133141	675.0
1541.647774	670.25
1542.162353	672.75
1542.676877	671.0
1543.191346	670.0
1543.705761	672.5
1544.220122	669.0
1544.734428	671.0
1545.24868	667.75
1545.762877	668.75
1546.27702	672.5
1546.791109	670.25
1547.305143	669.5
1547.819122	672.75
1548.333047	667.75
1548.846918	673.0
1549.360734	671.25
1549.874496	671.5
1550.388204	669.25
1550.901857	671.5
1551.415455	672.0
1551.929	671.5
1552.442489	671.5
1552.955925	672.0
1553.469306	672.25
1553.982632	668.75
1554.495905	676.0
1555.009123	674.25
1555.522286	674.25
1556.035395	670.0
1556.54845	673.5
1557.06145	669.0
1557.574396	672.5
1558.087288	670.0
1558.600125	671.5
1559.112908	669.25
1559.625637	671.25
1560.138311	669.75
1560.650931	672.25
1561.163497	675.75
1561.676008	673.0
1562.188465	667.75
1562.700867	673.5
1563.213216	670.25
1563.725509	669.5
1564.237749	673.25
1564.749934	667.75
1565.262065	673.5
1565.774142	671.5
1566.286164	677.75
1566.798132	674.0
1567.310046	673.75
1567.821906	673.75
1568.333711	672.25
1568.845462	670.0
1569.357158	673.5
1569.868801	674.75
1570.380389	674.25
1570.891922	669.75
1571.403402	670.75
1571.914827	671.5
1572.426198	672.25
1572.937515	671.75
1573.448777	673.0
1573.959985	670.75
1574.471139	671.75
1574.982239	671.5
1575.493285	670.75
1576.004276	670.5
1576.515213	671.25
1577.026096	670.5
1577.536924	669.0
1578.047698	669.5
1578.558419	671.25
1579.069084	671.75
1579.579696	667.75
1580.090254	669.75
1580.600757	672.0
1581.111206	671.25
1581.621601	669.5
1582.131941	673.5
1582.642228	669.25
1583.15246	673.25
1583.662638	668.5
1584.172762	671.0
1584.682832	669.5
1585.192847	671.5
1585.702809	671.5
1586.212716	672.0
1586.722569	671.5
1587.232368	672.5
1587.742113	667.25
1588.251803	669.25
1588.76144	672.25
1589.271022	670.75
1589.78055	669.5
1590.290024	672.75
1590.799444	672.5
1591.30881	670.0
1591.818121	672.75
1592.327379	669.5
