1042.414189	830.25
1042.980685	834.25
1043.547124	835.0
1044.113505	832.5
1044.679828	828.0
1045.246093	820.75
1045.8123	821.5
1046.378449	821.75
1046.94454	819.5
1047.510573	815.0
1048.076548	819.25
1048.642465	826.0
1049.208325	801.0
1049.774126	812.0
1050.339869	815.0
1050.905555	818.5
1051.471183	809.0
1052.036752	806.5
1052.602264	816.75
1053.167718	811.75
1053.733114	807.75
1054.298452	809.75
1054.863733	803.5
1055.428955	804.0
1055.994119	801.5
1056.559226	802.0
1057.124275	802.25
1057.689266	803.0
1058.254199	800.0
1058.819074	801.25
1059.383891	796.5
1059.94865	800.0
1060.513352	791.0
1061.077996	801.0
1061.642582	795.75
1062.20711	802.75
1062.77158	795.5
1063.335992	798.25
1063.900347	802.0
1064.464643	800.25
1065.028882	802.5
1065.593063	809.0
1066.157187	794.75
1066.721252	797.75
1067.28526	801.0
1067.84921	795.75
1068.413102	793.75
1068.976936	788.25
1069.540713	794.5
1070.104431	810.0
1070.668092	792.5
1071.231696	801.5
1071.795241	796.5
1072.358729	793.25
1072.922159	794.75
1073.485531	795.5
1074.048845	794.25
1074.612102	795.75
1075.175301	798.5
1075.738442	795.25
1076.301525	795.0
1076.864551	794.5
1077.427519	794.5
1077.990429	798.5
1078.553281	789.75
1079.116076	787.75
1079.678813	803.5
1080.241492	790.75
1080.804114	796.0
1081.366678	795.75
1081.929184	795.0
1082.491633	798.25
1083.054024	795.0
1083.616357	794.5
1084.178632	794.5
1084.74085	793.25
1085.30301	794.75
1085.865113	796.75
1086.427158	793.75
1086.989145	792.75
1087.551074	792.25
1088.112946	797.5
1088.67476	796.75
1089.236517	792.0
1089.798216	794.75
1090.359857	789.5
1090.92144	795.25
1091.482966	799.0
1092.044435	797.25
1092.605845	790.75
1093.167199	791.25
1093.728494	797.5
1094.289732	790.5
1094.850912	795.5
1095.412035	802.0
1095.9731	792.0
1096.534107	789.25
1097.095057	803.75
1097.65595	791.75
1098.216784	794.5
1098.777561	795.75
1099.338281	789.75
1099.898943	790.75
1100.459547	794.0
1101.020094	793.75
1101.580584	788.25
1102.141015	791.0
1102.701389	794.75
1103.261706	788.75
1103.821965	793.5
1104.382167	789.25
1104.942311	787.25
1105.502397	796.0
1106.062426	794.75
1106.622398	796.0
1107.182312	794.75
1107.742168	795.0
1108.301967	784.75
1108.861708	780.75
1109.421392	791.5
1109.981019	794.0
1110.540587	783.25
1111.100099	794.0
1111.659553	789.0
1112.218949	792.25
1112.778288	791.5
1113.33757	791.75
1113.896794	792.5
1114.45596	792.25
1115.015069	794.25
1115.574121	794.25
1116.133115	796.75
1116.692052	793.25
1117.250931	790.75
1117.809753	792.5
1118.368517	792.5
1118.927224	786.25
1119.485873	802.75
1120.044465	790.5
1120.603	795.75
1121.161477	790.0
1121.719897	792.5
1122.278259	788.75
1122.836564	786.25
1123.394812	795.75
1123.953002	793.75
1124.511135	793.25
1125.06921	791.5
1125.627228	786.5
1126.185189	786.25
1126.743092	793.0
1127.300938	793.0
1127.858726	797.75
1128.416457	786.5
1128.974131	785.25
1129.531748	784.25
1130.089307	785.25
1130.646808	793.5
1131.204252	799.5
1131.761639	798.5
1132.318969	794.0
1132.876241	782.75
1133.433456	792.25
1133.990614	799.25
1134.547714	795.25
1135.104757	792.25
1135.661743	790.0
1136.218671	797.0
1136.775542	796.75
1137.332356	795.25
1137.889112	787.75
1138.445811	791.25
1139.002453	790.25
1139.559037	795.75
1140.115565	795.25
1140.672035	798.0
1141.228447	787.5
1141.784803	795.75
1142.341101	786.75
1142.897342	798.5
1143.453525	795.5
1144.009651	798.75
1144.565721	788.75
1145.121732	795.25
1145.677687	794.5
1146.233584	796.5
1146.789424	803.25
1147.345207	792.5
1147.900933	796.75
1148.456601	795.0
1149.012212	792.75
1149.567766	794.0
1150.123263	801.0
1150.678702	795.25
1151.234085	790.0
1151.78941	798.0
1152.344678	796.75
1152.899888	798.25
1153.455042	792.25
1154.010138	793.25
1154.565177	798.0
1155.120159	787.75
1155.675084	794.5
1156.229951	799.75
1156.784762	798.5
1157.339515	792.5
1157.894211	794.25
1158.44885	800.25
1159.003432	801.5
1159.557956	791.5
1160.112424	799.25
1160.666834	798.75
1161.221187	798.75
1161.775483	800.0
1162.329722	796.25
1162.883904	801.25
1163.438029	792.0
1163.992096	792.75
1164.546107	799.5
1165.10006	794.0
1165.653956	800.75
1166.207795	802.25
1166.761577	796.0
1167.315302	801.5
1167.86897	794.75
1168.422581	796.75
1168.976134	802.75
1169.529631	799.5
1170.08307	792.5
1170.636453	800.0
1171.189778	802.0
1171.743046	792.75
1172.296257	799.25
1172.849412	786.25
1173.402509	796.5
1173.955549	798.25
1174.508532	798.5
1175.061458	802.25
1175.614327	795.5
1176.167138	797.0
1176.719893	792.75
1177.272591	802.0
1177.825232	796.0
1178.377816	791.0
1178.930342	797.0
1179.482812	793.75
1180.035225	798.25
1180.587581	798.25
1181.139879	788.75
1181.692121	794.0
1182.244306	791.75
1182.796434	796.25
1183.348504	795.25
1183.900518	799.25
1184.452475	801.25
1185.004375	796.75
1185.556218	789.0
1186.108004	793.0
1186.659733	802.5
1187.211405	799.5
1187.76302	797.5
1188.314578	798.75
1188.866079	790.0
1189.417523	802.0
1189.96891	795.0
1190.520241	792.0
1191.071514	795.0
1191.622731	794.75
1192.17389	796.5
1192.724993	803.25
1193.276039	818.75
1193.827027	803.25
1194.377959	794.75
1194.928834	792.75
1195.479653	797.75
1196.030414	794.0
1196.581118	791.75
1197.131766	799.75
1197.682356	798.25
1198.23289	797.5
1198.783367	795.5
1199.333786	796.25
1199.88415	795.5
1200.434456	796.75
1200.984705	795.0
1201.534898	795.5
1202.085033	800.75
1202.635112	795.5
1203.185134	799.25
1203.735099	794.0
1204.285007	796.5
1204.834859	796.0
1205.384653	800.0
1205.934391	790.25
1206.484072	798.25
1207.033696	796.0
1207.583263	798.25
1208.132774	801.75
1208.682228	794.0
1209.231624	796.75
1209.780965	795.75
1210.330248	790.5
1210.879474	788.0
1211.428644	793.25
1211.977757	801.0
1212.526813	795.25
1213.075813	788.5
1213.624755	791.25
1214.173641	792.75
1214.72247	793.5
1215.271242	797.25
1215.819958	793.5
1216.368617	801.5
1216.917219	795.5
1217.465764	800.5
1218.014253	795.25
1218.562685	800.75
1219.11106	802.75
1219.659378	795.25
1220.20764	799.0
1220.755845	789.5
1221.303993	800.25
1221.852085	797.5
1222.400119	797.75
1222.948097	793.75
1223.496019	796.0
1224.043883	792.75
1224.591691	796.5
1225.139443	791.25
1225.687137	796.5
1226.234775	795.75
1226.782357	801.5
1227.329881	802.25
1227.877349	794.5
1228.42476	792.5
1228.972115	806.5
1229.519413	795.25
1230.066654	797.25
1230.613839	803.75
1231.160967	801.75
1231.708038	803.5
1232.255053	795.5
1232.802011	802.5
1233.348912	793.5
1233.895757	803.75
1234.442545	799.0
1234.989277	801.0
1235.535951	794.5
1236.08257	805.5
1236.629131	797.5
1237.175636	796.75
1237.722085	789.75
1238.268477	803.0
1238.814812	802.25
1239.361091	795.0
1239.907313	791.75
1240.453478	802.75
1240.999587	795.75
1241.54564	795.75
1242.091636	795.25
1242.637575	798.0
1243.183457	806.0
1243.729284	799.5
1244.275053	800.5
1244.820766	799.25
1245.366423	804.0
1245.912022	797.25
1246.457566	797.5
1247.003053	804.75
1247.548483	801.0
1248.093857	803.5
1248.639174	795.5
1249.184435	800.5
1249.729639	807.75
1250.274787	800.0
1250.819878	797.25
1251.364912	800.0
1251.909891	793.75
1252.454812	799.75
1252.999677	795.75
1253.544486	798.5
1254.089238	799.25
1254.633934	797.0
1255.178573	798.0
1255.723156	795.0
1256.267682	797.5
1256.812152	807.25
1257.356565	795.0
1257.900922	805.5
1258.445223	803.0
1258.989467	798.0
1259.533654	803.25
1260.077785	814.0
1260.62186	808.5
1261.165878	805.0
1261.70984	806.0
1262.253745	805.75
1262.797594	803.75
1263.341386	810.5
1263.885123	807.25
1264.428802	813.75
1264.972425	817.0
1265.515992	829.5
1266.059503	824.25
1266.602957	817.25
1267.146354	808.25
1267.689696	804.25
1268.23298	811.25
1268.776209	811.75
1269.319381	800.25
1269.862497	803.75
1270.405556	800.5
1270.948559	807.25
1271.491506	808.5
1272.034396	807.0
1272.57723	804.25
1273.120007	807.0
1273.662728	804.0
1274.205393	810.75
1274.748002	807.5
1275.290554	802.75
1275.83305	802.0
1276.375489	811.25
1276.917872	803.5
1277.460199	808.25
1278.00247	803.0
1278.544684	810.75
1279.086842	809.0
1279.628943	809.0
1280.170989	810.25
1280.712978	808.5
1281.25491	805.0
1281.796787	813.25
1282.338607	803.0
1282.880371	807.25
1283.422078	815.0
1283.963729	826.0
1284.505324	836.75
1285.046863	903.75
1285.588345	1089.75
1286.129772	1214.75
1286.671142	980.0
1287.212455	852.25
1287.753713	821.5
1288.294914	807.75
1288.836059	809.25
1289.377147	809.75
1289.91818	808.5
1290.459156	807.5
1291.000076	806.5
1291.54094	805.75
1292.081747	799.0
1292.622499	808.0
1293.163194	806.0
1293.703833	807.5
1294.244415	807.25
1294.784942	808.75
1295.325412	809.25
1295.865826	804.25
1296.406184	808.5
1296.946486	800.5
1297.486731	812.25
1298.026921	805.25
1298.567054	803.25
1299.107131	804.5
1299.647152	801.0
1300.187116	799.75
1300.727025	805.5
1301.266877	805.75
1301.806673	799.0
1302.346413	801.75
1302.886097	806.0
1303.425725	806.0
1303.965297	801.5
1304.504812	801.25
1305.044272	804.5
1305.583675	801.25
1306.123022	803.25
1306.662313	805.0
1307.201548	799.5
1307.740727	802.5
1308.279849	803.25
1308.818916	804.75
1309.357926	806.25
1309.896881	799.75
1310.435779	801.75
1310.974621	802.75
1311.513407	802.0
1312.052137	800.25
1312.590811	802.25
1313.129429	810.0
1313.667991	795.25
1314.206497	803.0
1314.744946	801.5
1315.28334	804.0
1315.821678	794.25
1316.359959	800.0
1316.898184	810.25
1317.436354	799.75
1317.974467	792.75
1318.512525	794.0
1319.050526	806.0
1319.588471	804.5
1320.12636	804.25
1320.664194	802.25
1321.201971	802.75
1321.739692	801.25
1322.277357	798.25
1322.814967	801.25
1323.35252	799.5
1323.890017	809.5
1324.427458	808.75
1324.964843	807.0
1325.502173	801.75
1326.039446	803.25
1326.576663	798.5
1327.113824	797.75
1327.65093	804.25
1328.187979	805.25
1328.724972	800.5
1329.26191	800.0
1329.798791	804.75
1330.335617	803.5
1330.872386	802.25
1331.4091	792.75
1331.945758	800.5
1332.48236	801.75
1333.018905	795.75
1333.555395	797.0
1334.091829	801.0
1334.628207	795.75
1335.164529	804.0
1335.700796	810.75
1336.237006	808.5
1336.77316	803.5
1337.309259	800.75
1337.845301	801.25
1338.381288	799.0
1338.917219	797.5
1339.453094	805.75
1339.988913	802.75
1340.524676	809.5
1341.060383	805.75
1341.596034	801.25
1342.13163	795.75
1342.66717	796.5
1343.202653	807.0
1343.738081	800.5
1344.273453	804.75
1344.80877	799.0
1345.34403	793.75
1345.879235	801.5
1346.414383	800.75
1346.949476	800.5
1347.484513	804.5
1348.019494	803.25
1348.55442	807.25
1349.089289	795.5
1349.624103	805.75
1350.158861	798.25
1350.693563	802.25
1351.228209	806.25
1351.7628	801.75
1352.297334	801.25
1352.831813	803.25
1353.366236	804.25
1353.900604	796.25
1354.434915	799.25
1354.969171	804.5
1355.503371	803.5
1356.037515	794.5
1356.571604	799.25
1357.105636	802.0
1357.639613	796.25
1358.173535	792.5
1358.7074	797.25
1359.24121	803.0
1359.774964	797.0
1360.308662	810.5
1360.842304	801.75
1361.375891	799.75
1361.909422	801.5
1362.442897	806.0
1362.976317	798.75
1363.50968	798.5
1364.042989	807.0
1364.576241	805.75
1365.109438	805.75
1365.642579	800.5
1366.175664	800.75
1366.708693	806.25
1367.241667	803.25
1367.774585	803.5
1368.307448	796.0
1368.840255	807.25
1369.373006	802.0
1369.905701	805.0
1370.438341	807.25
1370.970925	820.0
1371.503454	804.25
1372.035926	811.5
1372.568344	804.75
1373.100705	802.0
1373.633011	798.0
1374.165261	804.75
1374.697456	800.5
1375.229595	799.75
1375.761678	807.75
1376.293705	810.5
1376.825677	799.25
1377.357594	803.25
1377.889455	808.75
1378.42126	800.25
1378.953009	797.75
1379.484703	800.25
1380.016342	807.75
1380.547924	802.75
1381.079452	798.75
1381.610923	798.25
1382.142339	806.5
1382.673699	795.75
1383.205004	803.25
1383.736253	809.5
1384.267447	810.75
1384.798585	804.0
1385.329668	803.0
1385.860695	809.75
1386.391666	810.5
1386.922582	813.25
1387.453442	816.75
1387.984247	853.75
1388.514996	999.75
1389.04569	1450.75
1389.576328	1409.75
1390.10691	946.5
1390.637437	840.5
1391.167909	810.75
1391.698325	809.25
1392.228685	815.0
1392.75899	806.75
1393.28924	807.25
1393.819434	817.25
1394.349572	807.75
1394.879655	797.75
1395.409683	805.75
1395.939655	798.75
1396.469571	804.5
1396.999432	806.0
1397.529237	802.25
1398.058987	800.0
1398.588682	805.0
1399.118321	804.75
1399.647905	800.0
1400.177433	803.75
1400.706906	803.0
1401.236323	806.75
1401.765685	802.25
1402.294991	800.75
1402.824242	806.75
1403.353437	800.5
1403.882577	805.0
1404.411662	804.0
1404.940691	806.25
1405.469665	803.0
1405.998583	806.25
1406.527446	802.0
1407.056253	803.5
1407.585005	811.0
1408.113702	808.25
1408.642343	810.5
1409.170929	813.75
1409.69946	817.5
1410.227935	846.0
1410.756354	850.75
1411.284719	832.5
1411.813028	816.25
1412.341281	805.75
1412.869479	802.75
1413.397622	812.0
1413.92571	800.0
1414.453742	808.0
1414.981718	801.75
1415.50964	819.5
1416.037506	800.75
1416.565316	799.5
1417.093072	799.75
1417.620772	800.75
1418.148416	808.0
1418.676005	804.5
1419.203539	809.0
1419.731018	803.0
1420.258441	807.75
1420.785809	803.5
1421.313122	800.0
1421.840379	809.5
1422.367582	811.75
1422.894728	805.75
1423.42182	809.25
1423.948856	804.75
1424.475837	807.25
1425.002762	811.25
1425.529633	805.25
1426.056448	802.25
1426.583207	814.25
1427.109912	804.0
1427.636561	802.5
1428.163155	804.75
1428.689694	798.25
1429.216177	806.5
1429.742605	807.75
1430.268978	809.75
1430.795296	803.0
1431.321558	802.25
1431.847765	803.75
1432.373917	802.75
1432.900014	801.5
1433.426056	806.0
1433.952042	806.0
1434.477973	798.25
1435.003849	805.5
1435.529669	802.25
1436.055435	811.5
1436.581145	802.5
1437.1068	803.75
1437.632399	795.5
1438.157944	799.75
1438.683433	806.75
1439.208868	804.5
1439.734247	808.0
1440.25957	804.25
1440.784839	809.25
1441.310053	803.0
1441.835211	811.75
1442.360314	809.0
1442.885362	800.5
1443.410355	802.75
1443.935292	800.75
1444.460175	807.25
1444.985002	814.75
1445.509774	801.5
1446.034491	802.5
1446.559153	803.25
1447.08376	801.0
1447.608312	807.5
1448.132808	804.5
1448.65725	806.25
1449.181636	803.0
1449.705967	809.75
1450.230243	808.5
1450.754464	806.25
1451.27863	811.75
1451.802741	805.75
1452.326797	796.5
1452.850797	799.5
1453.374743	811.0
1453.898633	808.0
1454.422468	803.5
1454.946249	804.0
1455.469974	804.25
1455.993644	804.0
1456.517259	801.5
1457.040819	800.5
1457.564324	801.75
1458.087773	803.25
1458.611168	806.0
1459.134508	803.0
1459.657793	807.75
1460.181022	805.0
1460.704197	800.75
1461.227316	809.5
1461.750381	802.5
1462.27339	805.0
1462.796345	825.5
1463.842089	836.25
1464.364878	806.5
1464.887613	801.5
1465.410292	808.75
1465.932916	814.25
1466.455486	802.25
1466.978	804.0
1467.50046	801.75
1468.022864	806.75
1468.545214	802.5
1469.067508	797.75
1469.589748	805.25
1470.111932	807.0
1470.634062	801.5
1471.156136	799.25
1471.678156	803.5
1472.20012	808.0
1472.72203	802.0
1473.243885	800.5
1473.765685	805.75
1474.28743	802.0
1474.80912	800.25
1475.330755	802.5
1475.852335	802.25
1476.37386	806.0
1476.89533	803.5
1477.416745	804.5
1477.938106	803.25
1478.459411	807.75
1478.980662	799.0
1479.501857	809.0
1480.022998	802.75
1480.544084	807.25
1481.065115	808.5
1481.586091	806.25
1482.107012	801.5
1482.627878	804.0
1483.14869	806.75
1483.669446	805.5
1484.190148	796.5
1484.710794	807.0
1485.231386	806.0
1485.751923	796.75
1486.272406	806.75
1486.792833	800.5
1487.313205	810.5
1487.833523	809.5
1488.353786	803.0
1488.873994	810.5
1489.394147	799.5
1489.914245	806.5
1490.434288	806.25
1490.954277	807.25
1491.474211	802.25
1491.99409	801.75
1492.513914	804.75
1493.033683	801.25
1493.553398	797.5
1494.073057	801.25
1494.592662	811.5
1495.112212	803.0
1495.631708	804.5
1496.151148	804.75
1496.670534	799.0
1497.189865	798.0
1497.709141	804.25
1498.228362	806.0
1498.747529	799.5
1499.266641	806.0
1499.785698	810.25
1500.3047	809.25
1500.823648	797.5
1501.34254	797.5
1501.861379	798.75
1502.380162	810.25
1502.89889	800.75
1503.417564	802.0
1503.936183	809.5
1504.454748	806.75
1504.973257	798.75
1505.491712	803.0
1506.010112	806.25
1506.528458	792.75
1507.046748	801.0
1507.564984	798.5
1508.083166	794.0
1508.601292	798.25
1509.119364	806.0
1509.637381	800.25
1510.155344	808.0
1510.673252	804.5
1511.191105	803.25
1511.708903	794.75
1512.226647	800.75
1512.744336	796.75
1513.261971	803.75
1513.77955	797.75
1514.297076	805.5
1514.814546	800.0
1515.331962	796.5
1515.849323	802.5
1516.366629	806.25
1516.883881	804.25
1517.401078	797.25
1517.918221	806.5
1518.435309	802.5
1518.952342	795.25
1519.469321	795.25
1519.986245	797.0
1520.503114	802.75
1521.019929	805.5
1521.536689	798.75
1522.053395	799.75
1522.570046	800.0
1523.086642	802.75
1523.603184	801.75
1524.119671	801.5
1524.636103	794.75
1525.152481	797.75
1525.668805	802.75
1526.185073	833.75
1526.701288	835.5
1527.217447	807.5
1527.733552	802.25
1528.249603	807.0
1528.765599	806.75
1529.28154	804.5
1529.797427	799.5
1530.313259	803.25
1530.829037	803.75
1531.34476	801.25
1531.860429	808.5
1532.376043	803.75
1532.891602	808.0
1533.407107	805.75
1533.922558	804.5
1534.437954	809.0
1534.953295	807.5
1535.468582	811.25
1535.983815	797.25
1536.498993	798.75
1537.014116	811.5
1537.529185	806.5
1538.044199	800.5
1538.559159	806.25
1539.074064	802.5
1539.588915	797.75
1540.103712	808.5
1540.618454	810.0
1541.133141	798.75
1541.647774	802.5
1542.162353	801.75
1542.676877	806.0
1543.191346	818.5
1543.705761	797.25
1544.220122	807.25
1544.734428	810.0
1545.24868	806.5
1545.762877	803.5
1546.27702	798.5
1546.791109	805.75
1547.305143	801.25
1547.819122	806.0
1548.333047	806.5
1548.846918	804.75
1549.360734	801.75
1549.874496	808.5
1550.388204	806.25
1550.901857	808.5
1551.415455	804.0
1551.929	805.75
1552.442489	811.0
1552.955925	802.0
1553.469306	809.0
1553.982632	808.25
1554.495905	808.25
1555.009123	806.75
1555.522286	806.75
1556.035395	807.75
1556.54845	808.75
1557.06145	804.75
1557.574396	809.0
1558.087288	814.25
1558.600125	803.0
1559.112908	804.0
1559.625637	804.75
1560.138311	802.75
1560.650931	809.5
1561.163497	800.5
1561.676008	807.0
1562.188465	808.25
1562.700867	808.75
1563.213216	810.0
1563.725509	810.5
1564.237749	803.75
1564.749934	810.5
1565.262065	809.25
1565.774142	810.0
1566.286164	814.0
1566.798132	807.75
1567.310046	811.25
1567.821906	808.5
1568.333711	810.75
1568.845462	807.75
1569.357158	811.75
1569.868801	807.75
1570.380389	805.25
1570.891922	806.0
1571.403402	803.0
1571.914827	809.75
1572.426198	811.5
1572.937515	812.0
1573.448777	802.5
1573.959985	808.0
1574.471139	811.0
1574.982239	814.25
1575.493285	799.75
1576.004276	807.5
1576.515213	803.0
1577.026096	812.5
1577.536924	813.75
1578.047698	805.25
1578.558419	808.5
1579.069084	811.0
1579.579696	816.5
1580.090254	807.0
1580.600757	810.0
1581.111206	808.0
1581.621601	809.0
1582.131941	813.5
1582.642228	813.0
1583.15246	807.25
1583.662638	810.75
1584.172762	807.0
1584.682832	807.0
1585.192847	813.0
1585.702809	803.5
1586.212716	802.5
1586.722569	801.5
1587.232368	810.75
1587.742113	812.25
1588.251803	811.0
1588.76144	815.5
1589.271022	805.0
1589.78055	799.75
1590.290024	804.0
1590.799444	811.5
1591.30881	809.25
1591.818121	808.5
1592.327379	803.5
