1042.414189	716.75
1042.980685	720.0
1043.547124	717.0
1044.113505	716.75
1044.679828	717.5
1045.246093	709.0
1045.8123	707.5
1046.378449	710.25
1046.94454	712.25
1047.510573	705.5
1048.076548	705.75
1048.642465	706.0
1049.208325	703.25
1049.774126	702.75
1050.339869	702.25
1050.905555	702.75
1051.471183	701.5
1052.036752	696.75
1052.602264	698.0
1053.167718	702.25
1053.733114	694.25
1054.298452	699.75
1054.863733	694.75
1055.428955	695.0
1055.994119	696.0
1056.559226	694.75
1057.124275	696.0
1057.689266	701.0
1058.254199	692.75
1058.819074	694.75
1059.383891	691.5
1059.94865	696.5
1060.513352	695.25
1061.077996	690.75
1061.642582	689.25
1062.20711	695.0
1062.77158	694.5
1063.335992	696.0
1063.900347	687.0
1064.464643	689.5
1065.028882	693.0
1065.593063	694.25
1066.157187	689.0
1066.721252	691.75
1067.28526	693.0
1067.84921	692.5
1068.413102	696.5
1068.976936	693.75
1069.540713	689.25
1070.104431	699.0
1070.668092	690.5
1071.231696	693.25
1071.795241	689.25
1072.358729	694.75
1072.922159	690.0
1073.485531	690.25
1074.048845	691.0
1074.612102	693.75
1075.175301	691.0
1075.738442	692.0
1076.301525	689.5
1076.864551	690.5
1077.427519	693.25
1077.990429	688.5
1078.553281	694.25
1079.116076	689.75
1079.678813	691.5
1080.241492	690.75
1080.804114	689.5
1081.366678	690.5
1081.929184	688.25
1082.491633	691.5
1083.054024	690.75
1083.616357	691.75
1084.178632	691.75
1084.74085	687.0
1085.30301	687.5
1085.865113	688.0
1086.427158	692.25
1086.989145	687.5
1087.551074	695.0
1088.112946	690.5
1088.67476	689.5
1089.236517	689.0
1089.798216	687.25
1090.359857	686.75
1090.92144	692.75
1091.482966	690.25
1092.044435	689.75
1092.605845	688.25
1093.167199	686.25
1093.728494	688.25
1094.289732	689.25
1094.850912	690.75
1095.412035	693.5
1095.9731	687.25
1096.534107	689.25
1097.095057	693.5
1097.65595	688.5
1098.216784	690.5
1098.777561	688.5
1099.338281	688.5
1099.898943	685.25
1100.459547	691.0
1101.020094	689.25
1101.580584	688.0
1102.141015	686.0
1102.701389	689.0
1103.261706	691.25
1103.821965	689.75
1104.382167	685.75
1104.942311	688.25
1105.502397	687.0
1106.062426	688.5
1106.622398	692.0
1107.182312	687.25
1107.742168	689.0
1108.301967	686.75
1108.861708	690.5
1109.421392	686.75
1109.981019	693.75
1110.540587	686.25
1111.100099	688.5
1111.659553	691.5
1112.218949	697.0
1112.778288	684.75
1113.33757	688.5
1113.896794	687.25
1114.45596	691.75
1115.015069	687.0
1115.574121	687.75
1116.133115	689.0
1116.692052	690.25
1117.250931	689.75
1117.809753	687.5
1118.368517	690.5
1118.927224	687.5
1119.485873	689.25
1120.044465	688.75
1120.603	681.5
1121.161477	688.75
1121.719897	693.25
1122.278259	691.0
1122.836564	689.25
1123.394812	689.75
1123.953002	691.75
1124.511135	687.5
1125.06921	688.25
1125.627228	686.75
1126.185189	690.5
1126.743092	687.0
1127.300938	687.25
1127.858726	689.5
1128.416457	684.75
1128.974131	688.75
1129.531748	693.0
1130.089307	690.0
1130.646808	690.25
1131.204252	689.5
1131.761639	691.5
1132.318969	692.0
1132.876241	691.5
1133.433456	687.75
1133.990614	690.0
1134.547714	685.75
1135.104757	687.0
1135.661743	687.5
1136.218671	689.25
1136.775542	684.5
1137.332356	687.25
1137.889112	688.5
1138.445811	690.5
1139.002453	691.0
1139.559037	689.25
1140.115565	688.25
1140.672035	684.5
1141.228447	689.25
1141.784803	687.5
1142.341101	690.75
1142.897342	686.75
1143.453525	688.5
1144.009651	691.0
1144.565721	690.25
1145.121732	691.0
1145.677687	687.75
1146.233584	690.25
1146.789424	688.75
1147.345207	686.0
1147.900933	692.25
1148.456601	690.5
1149.012212	689.0
1149.567766	689.75
1150.123263	690.25
1150.678702	685.5
1151.234085	688.75
1151.78941	685.5
1152.344678	686.75
1152.899888	691.0
1153.455042	687.0
1154.010138	686.75
1154.565177	687.25
1155.120159	688.75
1155.675084	691.5
1156.229951	689.0
1156.784762	692.0
1157.339515	688.5
1157.894211	691.75
1158.44885	693.75
1159.003432	690.25
1159.557956	692.5
1160.112424	688.75
1160.666834	687.25
1161.221187	689.5
1161.775483	694.25
1162.329722	685.25
1162.883904	690.5
1163.438029	691.25
1163.992096	689.5
1164.546107	688.75
1165.10006	683.75
1165.653956	689.0
1166.207795	687.0
1166.761577	689.25
1167.315302	691.0
1167.86897	683.75
1168.422581	689.0
1168.976134	688.75
1169.529631	688.5
1170.08307	688.75
1170.636453	689.0
1171.189778	690.0
1171.743046	685.5
1172.296257	688.5
1172.849412	689.5
1173.402509	685.75
1173.955549	688.5
1174.508532	688.5
1175.061458	685.5
1175.614327	687.75
1176.167138	689.25
1176.719893	687.0
1177.272591	686.25
1177.825232	686.5
1178.377816	687.5
1178.930342	687.25
1179.482812	689.0
1180.035225	687.75
1180.587581	687.75
1181.139879	686.75
1181.692121	687.5
1182.244306	689.0
1182.796434	688.25
1183.348504	687.0
1183.900518	686.5
1184.452475	685.0
1185.004375	687.25
1185.556218	690.0
1186.108004	688.0
1186.659733	688.75
1187.211405	687.25
1187.76302	689.75
1188.314578	687.25
1188.866079	690.0
1189.417523	688.0
1189.96891	684.5
1190.520241	690.75
1191.071514	687.75
1191.622731	688.0
1192.17389	692.25
1192.724993	686.5
1193.276039	715.0
1193.827027	688.0
1194.377959	687.0
1194.928834	689.0
1195.479653	690.75
1196.030414	688.75
1196.581118	687.25
1197.131766	689.0
1197.682356	689.25
1198.23289	688.0
1198.783367	689.0
1199.333786	686.0
1199.88415	689.75
1200.434456	689.0
1200.984705	690.5
1201.534898	689.25
1202.085033	690.5
1202.635112	690.0
1203.185134	690.5
1203.735099	689.25
1204.285007	685.0
1204.834859	689.0
1205.384653	690.0
1205.934391	689.75
1206.484072	688.25
1207.033696	684.75
1207.583263	691.0
1208.132774	687.5
1208.682228	688.75
1209.231624	684.75
1209.780965	685.0
1210.330248	687.75
1210.879474	689.5
1211.428644	689.25
1211.977757	689.25
1212.526813	690.25
1213.075813	692.0
1213.624755	688.0
1214.173641	689.5
1214.72247	690.75
1215.271242	691.25
1215.819958	688.25
1216.368617	689.75
1216.917219	691.5
1217.465764	690.5
1218.014253	688.25
1218.562685	692.25
1219.11106	686.25
1219.659378	692.25
1220.20764	687.25
1220.755845	686.0
1221.303993	691.75
1221.852085	692.0
1222.400119	689.25
1222.948097	693.0
1223.496019	688.0
1224.043883	687.25
1224.591691	690.75
1225.139443	690.0
1225.687137	690.0
1226.234775	687.5
1226.782357	686.0
1227.329881	689.0
1227.877349	691.0
1228.42476	685.0
1228.972115	690.75
1229.519413	689.25
1230.066654	690.5
1230.613839	689.25
1231.160967	689.0
1231.708038	691.0
1232.255053	688.5
1232.802011	687.75
1233.348912	688.25
1233.895757	686.5
1234.442545	691.0
1234.989277	686.75
1235.535951	688.75
1236.08257	685.5
1236.629131	689.75
1237.175636	689.0
1237.722085	686.0
1238.268477	687.0
1238.814812	689.0
1239.361091	689.75
1239.907313	688.25
1240.453478	692.75
1240.999587	688.25
1241.54564	692.0
1242.091636	689.0
1242.637575	684.5
1243.183457	687.75
1243.729284	691.5
1244.275053	685.75
1244.820766	688.25
1245.366423	689.25
1245.912022	689.75
1246.457566	687.75
1247.003053	688.0
1247.548483	689.25
1248.093857	687.5
1248.639174	689.0
1249.184435	689.0
1249.729639	688.25
1250.274787	688.75
1250.819878	687.25
1251.364912	686.25
1251.909891	686.0
1252.454812	689.75
1252.999677	693.25
1253.544486	689.0
1254.089238	686.0
1254.633934	686.25
1255.178573	686.75
1255.723156	691.5
1256.267682	685.0
1256.812152	691.0
1257.356565	687.75
1257.900922	689.75
1258.445223	686.5
1258.989467	684.75
1259.533654	686.0
1260.077785	702.5
1260.62186	685.25
1261.165878	687.25
1261.70984	690.75
1262.253745	689.0
1262.797594	694.25
1263.341386	686.5
1263.885123	692.25
1264.428802	693.5
1264.972425	693.5
1265.515992	701.25
1266.059503	698.5
1266.602957	695.25
1267.146354	689.25
1267.689696	688.5
1268.23298	689.25
1268.776209	690.0
1269.319381	690.5
1269.862497	687.25
1270.405556	683.75
1270.948559	687.75
1271.491506	687.75
1272.034396	684.75
1272.57723	685.75
1273.120007	686.0
1273.662728	689.0
1274.205393	687.25
1274.748002	684.75
1275.290554	691.5
1275.83305	686.5
1276.375489	690.25
1276.917872	690.0
1277.460199	689.75
1278.00247	684.5
1278.544684	686.75
1279.086842	685.25
1279.628943	687.75
1280.170989	688.25
1280.712978	689.25
1281.25491	689.5
1281.796787	686.5
1282.338607	689.75
1282.880371	691.5
1283.422078	692.0
1283.963729	693.5
1284.505324	691.5
1285.046863	709.5
1285.588345	778.0
1286.129772	876.0
1286.671142	795.0
1287.212455	719.25
1287.753713	699.0
1288.294914	690.25
1288.836059	695.75
1289.377147	687.25
1289.91818	687.0
1290.459156	693.75
1291.000076	689.75
1291.54094	687.5
1292.081747	687.5
1292.622499	687.25
1293.163194	690.0
1293.703833	688.0
1294.244415	685.75
1294.784942	688.75
1295.325412	685.25
1295.865826	688.25
1296.406184	687.0
1296.946486	689.5
1297.486731	689.5
1298.026921	686.5
1298.567054	688.75
1299.107131	689.75
1299.647152	687.5
1300.187116	687.5
1300.727025	690.25
1301.266877	694.0
1301.806673	689.5
1302.346413	688.25
1302.886097	688.25
1303.425725	687.5
1303.965297	692.25
1304.504812	686.25
1305.044272	692.5
1305.583675	689.5
1306.123022	694.0
1306.662313	691.5
1307.201548	688.75
1307.740727	687.25
1308.279849	686.5
1308.818916	688.5
1309.357926	685.75
1309.896881	687.0
1310.435779	683.75
1310.974621	688.25
1311.513407	689.25
1312.052137	689.5
1312.590811	689.75
1313.129429	691.25
1313.667991	682.5
1314.206497	690.75
1314.744946	686.25
1315.28334	686.75
1315.821678	688.0
1316.359959	687.25
1316.898184	687.25
1317.436354	685.75
1317.974467	687.0
1318.512525	685.5
1319.050526	690.25
1319.588471	685.25
1320.12636	687.5
1320.664194	686.5
1321.201971	687.0
1321.739692	682.25
1322.277357	690.5
1322.814967	686.5
1323.35252	686.75
1323.890017	692.0
1324.427458	682.0
1324.964843	688.5
1325.502173	691.25
1326.039446	690.5
1326.576663	688.5
1327.113824	690.5
1327.65093	690.25
1328.187979	684.75
1328.724972	684.75
1329.26191	684.5
1329.798791	692.25
1330.335617	687.75
1330.872386	689.0
1331.4091	688.5
1331.945758	691.5
1332.48236	687.5
1333.018905	688.0
1333.555395	686.0
1334.091829	687.75
1334.628207	687.0
1335.164529	686.25
1335.700796	688.5
1336.237006	685.0
1336.77316	686.25
1337.309259	691.0
1337.845301	685.5
1338.381288	690.25
1338.917219	687.0
1339.453094	688.0
1339.988913	688.5
1340.524676	689.5
1341.060383	686.75
1341.596034	688.25
1342.13163	687.75
1342.66717	685.25
1343.202653	689.5
1343.738081	684.25
1344.273453	688.25
1344.80877	687.75
1345.34403	688.5
1345.879235	687.25
1346.414383	688.5
1346.949476	686.5
1347.484513	692.0
1348.019494	687.0
1348.55442	686.75
1349.089289	685.0
1349.624103	686.75
1350.158861	687.5
1350.693563	691.5
1351.228209	685.0
1351.7628	690.75
1352.297334	690.0
1352.831813	683.5
1353.366236	684.0
1353.900604	686.0
1354.434915	690.5
1354.969171	684.5
1355.503371	686.25
1356.037515	687.0
1356.571604	692.25
1357.105636	688.25
1357.639613	686.0
1358.173535	685.5
1358.7074	689.75
1359.24121	689.75
1359.774964	690.25
1360.308662	689.5
1360.842304	688.75
1361.375891	689.75
1361.909422	689.75
1362.442897	685.5
1362.976317	687.25
1363.50968	689.0
1364.042989	687.0
1364.576241	688.5
1365.109438	690.25
1365.642579	686.25
1366.175664	689.75
1366.708693	690.75
1367.241667	686.75
1367.774585	688.25
1368.307448	686.5
1368.840255	686.25
1369.373006	689.0
1369.905701	690.0
1370.438341	686.75
1370.970925	692.5
1371.503454	693.0
1372.035926	689.5
1372.568344	692.0
1373.100705	690.75
1373.633011	690.25
1374.165261	686.25
1374.697456	687.5
1375.229595	686.25
1375.761678	686.0
1376.293705	688.5
1376.825677	689.5
1377.357594	686.5
1377.889455	691.25
1378.42126	687.75
1378.953009	690.5
1379.484703	691.0
1380.016342	683.75
1380.547924	688.5
1381.079452	684.75
1381.610923	692.25
1382.142339	690.75
1382.673699	686.25
1383.205004	692.25
1383.736253	690.5
1384.267447	685.75
1384.798585	692.75
1385.329668	690.0
1385.860695	693.0
1386.391666	698.25
1386.922582	695.25
1387.453442	696.25
1387.984247	707.25
1388.514996	744.75
1389.04569	927.25
1389.576328	999.25
1390.10691	774.25
1390.637437	705.25
1391.167909	693.75
1391.698325	694.75
1392.228685	693.5
1392.75899	690.25
1393.28924	690.0
1393.819434	693.0
1394.349572	690.0
1394.879655	689.0
1395.409683	690.5
1395.939655	687.0
1396.469571	688.75
1396.999432	687.5
1397.529237	684.25
1398.058987	686.75
1398.588682	689.5
1399.118321	689.0
1399.647905	685.75
1400.177433	689.25
1400.706906	686.75
1401.236323	691.25
1401.765685	690.25
1402.294991	687.75
1402.824242	692.0
1403.353437	689.0
1403.882577	692.75
1404.411662	687.0
1404.940691	687.5
1405.469665	684.5
1405.998583	690.5
1406.527446	689.75
1407.056253	688.5
1407.585005	691.25
1408.113702	688.25
1408.642343	687.5
1409.170929	691.5
1409.69946	694.0
1410.227935	705.5
1410.756354	717.5
1411.284719	702.25
1411.813028	696.75
1412.341281	692.75
1412.869479	688.5
1413.397622	690.75
1413.92571	689.75
1414.453742	688.0
1414.981718	688.0
1415.50964	700.75
1416.037506	689.25
1416.565316	689.25
1417.093072	690.25
1417.620772	689.0
1418.148416	688.25
1418.676005	687.0
1419.203539	687.5
1419.731018	685.25
1420.258441	689.75
1420.785809	681.0
1421.313122	685.0
1421.840379	688.25
1422.367582	693.5
1422.894728	686.5
1423.42182	684.0
1423.948856	689.5
1424.475837	689.0
1425.002762	688.5
1425.529633	691.0
1426.056448	689.0
1426.583207	690.5
1427.109912	688.75
1427.636561	690.75
1428.163155	690.0
1428.689694	689.5
1429.216177	686.75
1429.742605	686.25
1430.268978	687.75
1430.795296	690.0
1431.321558	690.75
1431.847765	688.5
1432.373917	684.0
1432.900014	688.75
1433.426056	686.75
1433.952042	688.75
1434.477973	689.0
1435.003849	685.5
1435.529669	687.25
1436.055435	687.0
1436.581145	688.5
1437.1068	685.5
1437.632399	687.5
1438.157944	688.75
1438.683433	688.5
1439.208868	688.25
1439.734247	686.25
1440.25957	685.5
1440.784839	690.5
1441.310053	690.5
1441.835211	690.25
1442.360314	685.25
1442.885362	687.0
1443.410355	690.25
1443.935292	688.75
1444.460175	685.25
1444.985002	689.25
1445.509774	689.5
1446.034491	685.75
1446.559153	689.25
1447.08376	690.25
1447.608312	688.75
1448.132808	688.0
1448.65725	689.75
1449.181636	687.75
1449.705967	688.25
1450.230243	687.0
1450.754464	685.0
1451.27863	687.0
1451.802741	691.25
1452.326797	683.25
1452.850797	690.5
1453.374743	685.0
1453.898633	686.0
1454.422468	691.25
1454.946249	692.0
1455.469974	685.25
1455.993644	689.5
1456.517259	684.0
1457.040819	687.0
1457.564324	688.75
1458.087773	690.5
1458.611168	688.25
1459.134508	688.25
1459.657793	690.0
1460.181022	688.75
1460.704197	689.0
1461.227316	686.5
1461.750381	687.5
1462.27339	688.0
1462.796345	699.25
1463.842089	718.0
1464.364878	694.25
1464.887613	689.25
1465.410292	688.0
1465.932916	684.75
1466.455486	688.75
1466.978	687.5
1467.50046	687.5
1468.022864	690.5
1468.545214	687.5
1469.067508	694.0
1469.589748	687.0
1470.111932	689.0
1470.634062	686.25
1471.156136	689.0
1471.678156	686.25
1472.20012	690.0
1472.72203	689.25
1473.243885	688.25
1473.765685	689.5
1474.28743	687.5
1474.80912	688.75
1475.330755	689.75
1475.852335	683.75
1476.37386	694.25
1476.89533	687.25
1477.416745	689.75
1477.938106	687.75
1478.459411	687.25
1478.980662	685.75
1479.501857	688.5
1480.022998	685.5
1480.544084	688.0
1481.065115	687.5
1481.586091	687.0
1482.107012	689.25
1482.627878	684.0
1483.14869	688.25
1483.669446	688.25
1484.190148	690.0
1484.710794	683.0
1485.231386	690.75
1485.751923	689.5
1486.272406	686.25
1486.792833	690.75
1487.313205	688.25
1487.833523	686.5
1488.353786	686.0
1488.873994	691.25
1489.394147	688.5
1489.914245	685.75
1490.434288	687.75
1490.954277	688.25
1491.474211	690.5
1491.99409	688.0
1492.513914	687.25
1493.033683	687.25
1493.553398	683.5
1494.073057	686.5
1494.592662	686.0
1495.112212	685.5
1495.631708	691.0
1496.151148	688.75
1496.670534	684.75
1497.189865	692.0
1497.709141	688.5
1498.228362	688.75
1498.747529	688.75
1499.266641	688.0
1499.785698	697.5
1500.3047	687.5
1500.823648	690.75
1501.34254	687.75
1501.861379	690.0
1502.380162	684.5
1502.89889	686.25
1503.417564	686.75
1503.936183	687.0
1504.454748	689.0
1504.973257	688.75
1505.491712	684.25
1506.010112	685.5
1506.528458	686.0
1507.046748	687.25
1507.564984	689.0
1508.083166	690.75
1508.601292	688.75
1509.119364	688.0
1509.637381	685.0
1510.155344	691.0
1510.673252	697.25
1511.191105	686.0
1511.708903	689.75
1512.226647	686.75
1512.744336	694.0
1513.261971	684.25
1513.77955	686.5
1514.297076	686.0
1514.814546	688.0
1515.331962	693.75
1515.849323	685.75
1516.366629	689.25
1516.883881	691.5
1517.401078	688.75
1517.918221	689.5
1518.435309	687.5
1518.952342	685.75
1519.469321	686.0
1519.986245	688.5
1520.503114	686.75
1521.019929	686.25
1521.536689	688.0
1522.053395	689.75
1522.570046	690.0
1523.086642	690.0
1523.603184	685.75
1524.119671	686.25
1524.636103	691.0
1525.152481	686.25
1525.668805	688.25
1526.185073	721.75
1526.701288	718.5
1527.217447	693.5
1527.733552	689.25
1528.249603	687.75
1528.765599	688.75
1529.28154	687.0
1529.797427	690.25
1530.313259	687.25
1530.829037	688.25
1531.34476	690.0
1531.860429	688.75
1532.376043	690.25
1532.891602	688.75
1533.407107	686.25
1533.922558	686.25
1534.437954	687.0
1534.953295	689.0
1535.468582	689.25
1535.983815	689.5
1536.498993	688.25
1537.014116	682.75
1537.529185	683.5
1538.044199	686.75
1538.559159	685.5
1539.074064	690.25
1539.588915	686.25
1540.103712	687.0
1540.618454	688.5
1541.133141	683.75
1541.647774	683.25
1542.162353	687.0
1542.676877	688.0
1543.191346	689.0
1543.705761	687.5
1544.220122	692.5
1544.734428	688.75
1545.24868	686.75
1545.762877	688.0
1546.27702	690.75
1546.791109	690.25
1547.305143	689.5
1547.819122	691.25
1548.333047	686.5
1548.846918	689.5
1549.360734	690.25
1549.874496	687.0
1550.388204	687.5
1550.901857	688.0
1551.415455	686.5
1551.929	685.5
1552.442489	689.0
1552.955925	688.5
1553.469306	690.5
1553.982632	691.25
1554.495905	694.0
1555.009123	688.75
1555.522286	688.0
1556.035395	693.0
1556.54845	692.0
1557.06145	688.25
1557.574396	691.25
1558.087288	690.5
1558.600125	689.25
1559.112908	690.75
1559.625637	691.25
1560.138311	688.75
1560.650931	691.25
1561.163497	688.0
1561.676008	689.5
1562.188465	691.5
1562.700867	695.75
1563.213216	692.75
1563.725509	695.0
1564.237749	688.0
1564.749934	691.5
1565.262065	691.5
1565.774142	690.5
1566.286164	694.5
1566.798132	690.75
1567.310046	694.25
1567.821906	691.0
1568.333711	694.0
1568.845462	688.5
1569.357158	693.5
1569.868801	688.0
1570.380389	688.25
1570.891922	688.75
1571.403402	692.25
1571.914827	689.5
1572.426198	686.75
1572.937515	692.0
1573.448777	687.5
1573.959985	688.25
1574.471139	690.5
1574.982239	687.0
1575.493285	690.75
1576.004276	690.25
1576.515213	688.75
1577.026096	690.25
1577.536924	691.0
1578.047698	691.25
1578.558419	695.25
1579.069084	687.0
1579.579696	689.25
1580.090254	695.25
1580.600757	692.5
1581.111206	692.25
1581.621601	689.25
1582.131941	694.25
1582.642228	694.5
1583.15246	691.25
1583.662638	687.0
1584.172762	686.75
1584.682832	684.75
1585.192847	688.75
1585.702809	687.75
1586.212716	687.0
1586.722569	689.75
1587.232368	688.0
1587.742113	693.25
1588.251803	689.75
1588.76144	689.25
1589.271022	688.5
1589.78055	689.0
1590.290024	690.75
1590.799444	687.5
1591.30881	684.75
1591.818121	692.5
1592.327379	689.75
