1042.414189	728.75
1042.980685	730.75
1043.547124	728.5
1044.113505	729.0
1044.679828	726.75
1045.246093	719.0
1045.8123	726.5
1046.378449	724.25
1046.94454	719.75
1047.510573	721.0
1048.076548	720.5
1048.642465	716.25
1049.208325	716.25
1049.774126	711.75
1050.339869	718.75
1050.905555	719.5
1051.471183	711.25
1052.036752	710.0
1052.602264	711.0
1053.167718	709.75
1053.733114	708.25
1054.298452	714.0
1054.863733	711.0
1055.428955	715.0
1055.994119	708.5
1056.559226	704.75
1057.124275	707.75
1057.689266	707.25
1058.254199	703.5
1058.819074	706.5
1059.383891	703.25
1059.94865	705.75
1060.513352	701.0
1061.077996	706.25
1061.642582	704.0
1062.20711	707.25
1062.77158	710.25
1063.335992	706.25
1063.900347	701.5
1064.464643	701.0
1065.028882	708.25
1065.593063	703.75
1066.157187	706.0
1066.721252	709.75
1067.28526	707.0
1067.84921	703.5
1068.413102	702.0
1068.976936	708.5
1069.540713	706.75
1070.104431	714.0
1070.668092	703.75
1071.231696	703.75
1071.795241	704.25
1072.358729	703.25
1072.922159	708.5
1073.485531	703.0
1074.048845	703.5
1074.612102	701.5
1075.175301	702.25
1075.738442	704.75
1076.301525	700.0
1076.864551	700.5
1077.427519	703.25
1077.990429	704.75
1078.553281	705.25
1079.116076	701.75
1079.678813	704.5
1080.241492	705.0
1080.804114	704.0
1081.366678	707.75
1081.929184	704.75
1082.491633	704.75
1083.054024	702.75
1083.616357	708.5
1084.178632	702.5
1084.74085	701.75
1085.30301	703.25
1085.865113	704.75
1086.427158	702.5
1086.989145	704.5
1087.551074	704.25
1088.112946	701.75
1088.67476	698.75
1089.236517	704.5
1089.798216	699.75
1090.359857	703.75
1090.92144	702.75
1091.482966	700.0
1092.044435	695.75
1092.605845	703.0
1093.167199	704.5
1093.728494	700.5
1094.289732	699.75
1094.850912	705.5
1095.412035	708.25
1095.9731	702.25
1096.534107	700.25
1097.095057	704.25
1097.65595	706.25
1098.216784	704.5
1098.777561	698.75
1099.338281	704.0
1099.898943	700.75
1100.459547	707.75
1101.020094	700.25
1101.580584	703.75
1102.141015	700.0
1102.701389	702.5
1103.261706	700.25
1103.821965	699.75
1104.382167	703.25
1104.942311	701.0
1105.502397	701.5
1106.062426	703.0
1106.622398	702.75
1107.182312	702.0
1107.742168	701.25
1108.301967	699.0
1108.861708	702.5
1109.421392	703.0
1109.981019	704.75
1110.540587	699.25
1111.100099	701.5
1111.659553	703.0
1112.218949	703.5
1112.778288	702.0
1113.33757	700.5
1113.896794	703.25
1114.45596	703.0
1115.015069	702.75
1115.574121	699.5
1116.133115	702.5
1116.692052	702.75
1117.250931	706.5
1117.809753	704.5
1118.368517	701.0
1118.927224	703.0
1119.485873	705.5
1120.044465	703.5
1120.603	699.25
1121.161477	701.0
1121.719897	701.75
1122.278259	700.0
1122.836564	699.0
1123.394812	703.0
1123.953002	698.25
1124.511135	701.75
1125.06921	704.0
1125.627228	703.0
1126.185189	708.0
1126.743092	699.25
1127.300938	706.5
1127.858726	701.0
1128.416457	698.75
1128.974131	700.0
1129.531748	704.0
1130.089307	700.75
1130.646808	699.75
1131.204252	702.25
1131.761639	701.5
1132.318969	702.75
1132.876241	701.0
1133.433456	699.0
1133.990614	696.75
1134.547714	703.25
1135.104757	700.5
1135.661743	703.0
1136.218671	703.25
1136.775542	703.25
1137.332356	699.75
1137.889112	698.0
1138.445811	702.25
1139.002453	697.75
1139.559037	699.25
1140.115565	702.5
1140.672035	700.5
1141.228447	700.25
1141.784803	700.25
1142.341101	705.5
1142.897342	700.0
1143.453525	700.0
1144.009651	699.5
1144.565721	701.0
1145.121732	697.25
1145.677687	705.75
1146.233584	699.0
1146.789424	700.75
1147.345207	704.75
1147.900933	704.25
1148.456601	704.5
1149.012212	698.25
1149.567766	702.5
1150.123263	703.0
1150.678702	696.5
1151.234085	700.25
1151.78941	704.5
1152.344678	701.0
1152.899888	702.25
1153.455042	703.75
1154.010138	698.0
1154.565177	702.25
1155.120159	704.0
1155.675084	701.75
1156.229951	701.5
1156.784762	704.5
1157.339515	702.0
1157.894211	698.5
1158.44885	704.0
1159.003432	704.25
1159.557956	698.75
1160.112424	706.5
1160.666834	695.75
1161.221187	701.5
1161.775483	704.0
1162.329722	704.75
1162.883904	700.0
1163.438029	697.0
1163.992096	699.0
1164.546107	697.75
1165.10006	702.5
1165.653956	702.0
1166.207795	699.0
1166.761577	706.0
1167.315302	698.5
1167.86897	703.5
1168.422581	701.5
1168.976134	705.75
1169.529631	704.75
1170.08307	702.0
1170.636453	698.75
1171.189778	704.0
1171.743046	700.0
1172.296257	701.0
1172.849412	704.5
1173.402509	696.25
1173.955549	697.5
1174.508532	702.75
1175.061458	701.0
1175.614327	700.5
1176.167138	701.0
1176.719893	699.75
1177.272591	695.5
1177.825232	699.5
1178.377816	699.0
1178.930342	701.75
1179.482812	700.5
1180.035225	702.25
1180.587581	695.75
1181.139879	701.0
1181.692121	696.75
1182.244306	701.25
1182.796434	702.5
1183.348504	697.75
1183.900518	699.75
1184.452475	705.75
1185.004375	701.5
1185.556218	700.75
1186.108004	701.5
1186.659733	698.0
1187.211405	702.25
1187.76302	702.0
1188.314578	700.0
1188.866079	706.0
1189.417523	705.25
1189.96891	703.75
1190.520241	705.5
1191.071514	703.0
1191.622731	702.5
1192.17389	702.0
1192.724993	705.5
1193.276039	724.25
1193.827027	708.5
1194.377959	704.25
1194.928834	703.25
1195.479653	703.5
1196.030414	701.75
1196.581118	702.5
1197.131766	703.25
1197.682356	700.75
1198.23289	702.75
1198.783367	708.25
1199.333786	701.25
1199.88415	699.75
1200.434456	702.75
1200.984705	699.25
1201.534898	701.25
1202.085033	703.0
1202.635112	703.75
1203.185134	699.0
1203.735099	702.0
1204.285007	703.0
1204.834859	697.0
1205.384653	699.75
1205.934391	701.5
1206.484072	701.0
1207.033696	704.5
1207.583263	701.75
1208.132774	699.5
1208.682228	703.0
1209.231624	702.0
1209.780965	710.75
1210.330248	705.0
1210.879474	706.5
1211.428644	703.5
1211.977757	702.0
1212.526813	705.25
1213.075813	702.75
1213.624755	704.75
1214.173641	707.5
1214.72247	705.75
1215.271242	705.5
1215.819958	702.5
1216.368617	703.75
1216.917219	703.75
1217.465764	704.75
1218.014253	704.25
1218.562685	704.25
1219.11106	703.75
1219.659378	703.25
1220.20764	708.0
1220.755845	711.75
1221.303993	702.0
1221.852085	706.0
1222.400119	706.25
1222.948097	705.5
1223.496019	707.25
1224.043883	706.0
1224.591691	710.0
1225.139443	707.75
1225.687137	707.0
1226.234775	705.5
1226.782357	702.5
1227.329881	709.5
1227.877349	708.5
1228.42476	709.75
1228.972115	710.5
1229.519413	708.25
1230.066654	708.5
1230.613839	709.5
1231.160967	710.75
1231.708038	708.0
1232.255053	709.25
1232.802011	710.5
1233.348912	710.75
1233.895757	707.75
1234.442545	712.5
1234.989277	714.5
1235.535951	708.5
1236.08257	711.5
1236.629131	709.25
1237.175636	711.0
1237.722085	712.0
1238.268477	711.25
1238.814812	714.0
1239.361091	710.75
1239.907313	717.25
1240.453478	713.0
1240.999587	715.0
1241.54564	713.0
1242.091636	714.25
1242.637575	712.75
1243.183457	719.0
1243.729284	716.75
1244.275053	719.25
1244.820766	712.25
1245.366423	719.0
1245.912022	717.5
1246.457566	718.0
1247.003053	716.75
1247.548483	717.75
1248.093857	719.5
1248.639174	721.75
1249.184435	719.75
1249.729639	722.5
1250.274787	724.75
1250.819878	721.75
1251.364912	725.75
1251.909891	725.0
1252.454812	724.5
1252.999677	724.25
1253.544486	722.75
1254.089238	726.25
1254.633934	728.5
1255.178573	723.75
1255.723156	722.5
1256.267682	731.5
1256.812152	726.75
1257.356565	733.75
1257.900922	734.25
1258.445223	753.5
1258.989467	767.5
1259.533654	762.5
1260.077785	766.0
1260.62186	758.5
1261.165878	770.0
1261.70984	781.75
1262.253745	806.0
1262.797594	832.25
1263.341386	878.5
1263.885123	910.75
1264.428802	935.75
1264.972425	904.75
1265.515992	852.75
1266.059503	811.75
1266.602957	784.75
1267.146354	774.75
1267.689696	764.0
1268.23298	755.5
1268.776209	758.0
1269.319381	749.5
1269.862497	750.25
1270.405556	744.75
1270.948559	748.25
1271.491506	751.25
1272.034396	746.75
1272.57723	746.25
1273.120007	745.0
1273.662728	744.0
1274.205393	750.0
1274.748002	747.0
1275.290554	753.75
1275.83305	754.0
1276.375489	757.0
1276.917872	758.25
1277.460199	762.25
1278.00247	768.25
1278.544684	769.5
1279.086842	782.5
1279.628943	796.0
1280.170989	819.5
1280.712978	859.25
1281.25491	926.5
1281.796787	1060.0
1282.338607	1335.5
1282.880371	1863.0
1283.422078	2776.75
1283.963729	3756.25
1284.505324	4092.75
1285.046863	3283.75
1285.588345	2117.25
1286.129772	1366.0
1286.671142	1069.5
1287.212455	946.75
1287.753713	859.25
1288.294914	822.25
1288.836059	809.0
1289.377147	786.0
1289.91818	781.75
1290.459156	767.25
1291.000076	766.75
1291.54094	763.25
1292.081747	753.0
1292.622499	756.75
1293.163194	754.0
1293.703833	749.5
1294.244415	744.25
1294.784942	747.25
1295.325412	744.5
1295.865826	745.0
1296.406184	743.75
1296.946486	737.0
1297.486731	740.5
1298.026921	737.75
1298.567054	737.75
1299.107131	740.5
1299.647152	734.0
1300.187116	734.5
1300.727025	729.5
1301.266877	737.25
1301.806673	734.25
1302.346413	730.75
1302.886097	725.75
1303.425725	734.25
1303.965297	735.25
1304.504812	731.5
1305.044272	730.0
1305.583675	731.75
1306.123022	728.5
1306.662313	729.75
1307.201548	729.75
1307.740727	726.25
1308.279849	728.5
1308.818916	730.5
1309.357926	728.0
1309.896881	728.5
1310.435779	725.75
1310.974621	720.75
1311.513407	726.5
1312.052137	726.25
1312.590811	725.75
1313.129429	723.25
1313.667991	731.25
1314.206497	726.25
1314.744946	729.5
1315.28334	722.75
1315.821678	724.0
1316.359959	725.0
1316.898184	723.75
1317.436354	727.25
1317.974467	718.0
1318.512525	721.25
1319.050526	721.5
1319.588471	722.0
1320.12636	721.5
1320.664194	726.75
1321.201971	723.0
1321.739692	726.5
1322.277357	728.25
1322.814967	727.75
1323.35252	718.5
1323.890017	727.25
1324.427458	727.0
1324.964843	726.5
1325.502173	723.5
1326.039446	724.5
1326.576663	719.75
1327.113824	721.75
1327.65093	722.0
1328.187979	721.25
1328.724972	718.5
1329.26191	724.5
1329.798791	719.5
1330.335617	722.0
1330.872386	724.5
1331.4091	724.75
1331.945758	726.75
1332.48236	721.25
1333.018905	726.0
1333.555395	726.25
1334.091829	721.25
1334.628207	718.5
1335.164529	724.0
1335.700796	724.25
1336.237006	725.0
1336.77316	723.0
1337.309259	727.25
1337.845301	721.0
1338.381288	724.5
1338.917219	720.75
1339.453094	723.25
1339.988913	724.25
1340.524676	731.5
1341.060383	725.75
1341.596034	719.75
1342.13163	726.5
1342.66717	724.75
1343.202653	725.25
1343.738081	726.5
1344.273453	728.25
1344.80877	722.75
1345.34403	724.75
1345.879235	720.5
1346.414383	722.75
1346.949476	718.75
1347.484513	724.0
1348.019494	720.5
1348.55442	726.25
1349.089289	727.0
1349.624103	727.25
1350.158861	730.25
1350.693563	727.25
1351.228209	722.5
1351.7628	729.5
1352.297334	728.25
1352.831813	726.75
1353.366236	727.5
1353.900604	724.5
1354.434915	724.5
1354.969171	730.5
1355.503371	727.5
1356.037515	725.25
1356.571604	732.0
1357.105636	723.0
1357.639613	733.5
1358.173535	729.25
1358.7074	725.25
1359.24121	732.75
1359.774964	727.75
1360.308662	729.75
1360.842304	735.75
1361.375891	734.75
1361.909422	730.75
1362.442897	734.5
1362.976317	734.25
1363.50968	739.75
1364.042989	731.75
1364.576241	735.5
1365.109438	750.75
1365.642579	752.25
1366.175664	755.0
1366.708693	738.5
1367.241667	738.5
1367.774585	742.75
1368.307448	735.25
1368.840255	750.0
1369.373006	763.75
1369.905701	830.25
1370.438341	876.75
1370.970925	807.25
1371.503454	763.5
1372.035926	753.0
1372.568344	743.25
1373.100705	749.75
1373.633011	749.75
1374.165261	750.75
1374.697456	755.75
1375.229595	762.5
1375.761678	754.25
1376.293705	756.75
1376.825677	766.0
1377.357594	758.0
1377.889455	758.5
1378.42126	761.5
1378.953009	766.75
1379.484703	775.0
1380.016342	773.25
1380.547924	774.5
1381.079452	785.5
1381.610923	795.0
1382.142339	803.75
1382.673699	814.75
1383.205004	830.75
1383.736253	857.75
1384.267447	891.25
1384.798585	950.5
1385.329668	1026.25
1385.860695	1175.75
1386.391666	1458.25
1386.922582	2218.5
1387.453442	3989.25
1387.984247	6979.0
1388.514996	7932.0
1389.04569	4719.0
1389.576328	2326.0
1390.10691	1438.25
1390.637437	1143.5
1391.167909	981.25
1391.698325	918.75
1392.228685	868.75
1392.75899	838.75
1393.28924	814.5
1393.819434	809.25
1394.349572	793.25
1394.879655	790.75
1395.409683	779.5
1395.939655	773.25
1396.469571	771.25
1396.999432	767.25
1397.529237	766.75
1398.058987	761.0
1398.588682	757.75
1399.118321	762.25
1399.647905	754.75
1400.177433	760.0
1400.706906	755.0
1401.236323	754.0
1401.765685	764.5
1402.294991	756.75
1402.824242	762.75
1403.353437	761.25
1403.882577	760.0
1404.411662	766.75
1404.940691	772.25
1405.469665	775.5
1405.998583	787.0
1406.527446	798.5
1407.056253	816.75
1407.585005	850.25
1408.113702	897.75
1408.642343	945.75
1409.170929	1040.5
1409.69946	1100.5
1410.227935	1081.0
1410.756354	990.0
1411.284719	889.0
1411.813028	821.0
1412.341281	793.25
1412.869479	774.0
1413.397622	762.5
1413.92571	755.75
1414.453742	749.25
1414.981718	742.0
1415.50964	750.5
1416.037506	735.75
1416.565316	731.25
1417.093072	728.75
1417.620772	730.75
1418.148416	730.5
1418.676005	734.0
1419.203539	728.0
1419.731018	726.0
1420.258441	724.25
1420.785809	724.5
1421.313122	728.25
1421.840379	730.75
1422.367582	727.5
1422.894728	723.5
1423.42182	730.75
1423.948856	725.25
1424.475837	723.5
1425.002762	725.0
1425.529633	730.0
1426.056448	726.5
1426.583207	726.25
1427.109912	724.75
1427.636561	723.25
1428.163155	719.75
1428.689694	715.5
1429.216177	714.75
1429.742605	718.75
1430.268978	711.0
1430.795296	716.25
1431.321558	712.25
1431.847765	720.0
1432.373917	717.0
1432.900014	711.75
1433.426056	713.25
1433.952042	712.5
1434.477973	712.25
1435.003849	712.25
1435.529669	708.0
1436.055435	709.75
1436.581145	715.5
1437.1068	710.75
1437.632399	710.0
1438.157944	712.75
1438.683433	711.25
1439.208868	707.75
1439.734247	711.75
1440.25957	712.5
1440.784839	710.5
1441.310053	707.0
1441.835211	707.0
1442.360314	710.75
1442.885362	707.25
1443.410355	708.75
1443.935292	710.75
1444.460175	706.0
1444.985002	704.75
1445.509774	710.0
1446.034491	706.0
1446.559153	705.0
1447.08376	711.25
1447.608312	710.0
1448.132808	707.5
1448.65725	702.25
1449.181636	704.0
1449.705967	707.25
1450.230243	709.5
1450.754464	707.5
1451.27863	703.75
1451.802741	705.0
1452.326797	700.0
1452.850797	704.75
1453.374743	708.25
1453.898633	710.0
1454.422468	697.75
1454.946249	705.5
1455.469974	701.5
1455.993644	703.75
1456.517259	698.5
1457.040819	703.0
1457.564324	702.75
1458.087773	700.5
1458.611168	703.5
1459.134508	701.75
1459.657793	705.25
1460.181022	702.25
1460.704197	699.5
1461.227316	698.0
1461.750381	703.0
1462.27339	710.0
1462.796345	706.5
1463.319244	728.25
1463.842089	718.0
1464.364878	701.25
1464.887613	699.25
1465.410292	700.25
1465.932916	700.0
1466.455486	695.75
1466.978	703.5
1467.50046	701.0
1468.022864	700.0
1468.545214	699.5
1469.067508	703.75
1469.589748	700.25
1470.111932	704.0
1470.634062	703.5
1471.156136	701.25
1471.678156	696.75
1472.20012	698.75
1472.72203	702.25
1473.243885	698.75
1473.765685	701.25
1474.28743	696.25
1474.80912	699.0
1475.330755	702.75
1475.852335	700.25
1476.37386	699.25
1476.89533	695.75
1477.416745	691.75
1477.938106	698.25
1478.459411	698.0
1478.980662	699.75
1479.501857	697.75
1480.022998	700.25
1480.544084	703.75
1481.065115	702.25
1481.586091	699.5
1482.107012	700.25
1482.627878	702.0
1483.14869	699.5
1483.669446	700.5
1484.190148	699.5
1484.710794	699.0
1485.231386	696.0
1485.751923	695.5
1486.272406	697.25
1486.792833	702.75
1487.313205	699.75
1487.833523	695.5
1488.353786	697.25
1488.873994	697.5
1489.394147	696.25
1489.914245	699.25
1490.434288	700.0
1490.954277	700.75
1491.474211	698.75
1491.99409	703.0
1492.513914	698.25
1493.033683	694.75
1493.553398	696.75
1494.073057	700.75
1494.592662	699.75
1495.112212	700.5
1495.631708	699.0
1496.151148	700.5
1496.670534	698.25
1497.189865	699.0
1497.709141	696.75
1498.228362	700.75
1498.747529	703.75
1499.266641	696.5
1499.785698	707.0
1500.3047	703.5
1500.823648	699.5
1501.34254	699.0
1501.861379	703.75
1502.380162	696.75
1502.89889	696.0
1503.417564	699.0
1503.936183	697.5
1504.454748	696.25
1504.973257	698.5
1505.491712	697.5
1506.010112	695.25
1506.528458	694.75
1507.046748	699.0
1507.564984	697.75
1508.083166	695.75
1508.601292	698.5
1509.119364	695.5
1509.637381	701.75
1510.155344	699.25
1510.673252	709.25
1511.191105	698.25
1511.708903	695.0
1512.226647	695.75
1512.744336	697.75
1513.261971	697.0
1513.77955	693.0
1514.297076	697.25
1514.814546	697.5
1515.331962	701.5
1515.849323	696.75
1516.366629	695.5
1516.883881	694.75
1517.401078	699.25
1517.918221	700.5
1518.435309	696.0
1518.952342	697.0
1519.469321	696.25
1519.986245	698.25
1520.503114	695.75
1521.019929	699.5
1521.536689	696.25
1522.053395	699.0
1522.570046	702.75
1523.086642	697.75
1523.603184	702.25
1524.119671	700.5
1524.636103	699.5
1525.152481	697.25
1525.668805	697.25
1526.185073	713.0
1526.701288	715.25
1527.217447	701.0
1527.733552	706.5
1528.765599	701.5
1529.28154	698.5
1529.797427	700.5
1530.313259	695.5
1530.829037	696.75
1531.34476	696.0
1531.860429	703.0
1532.376043	696.5
1532.891602	703.0
1533.407107	695.75
1533.922558	699.25
1534.437954	697.75
1534.953295	698.5
1535.468582	695.75
1535.983815	695.25
1536.498993	696.75
1537.014116	694.25
1537.529185	695.5
1538.044199	696.25
1538.559159	697.0
1539.074064	700.0
1539.588915	697.75
1540.103712	697.75
1540.618454	696.75
1541.133141	700.0
1541.647774	699.5
1542.162353	701.5
1542.676877	694.0
1543.191346	699.5
1543.705761	700.75
1544.220122	698.5
1544.734428	698.0
1545.24868	701.75
1545.762877	694.25
1546.27702	701.0
1546.791109	697.5
1547.305143	702.25
1547.819122	696.0
1548.333047	700.25
1548.846918	698.5
1549.360734	696.0
1549.874496	696.25
1550.388204	698.5
1550.901857	694.5
1551.415455	698.0
1551.929	697.0
1552.442489	698.25
1552.955925	699.75
1553.469306	704.5
1553.982632	697.5
1554.495905	698.25
1555.009123	702.75
1555.522286	700.75
1556.035395	697.5
1556.54845	699.0
1557.06145	696.5
1557.574396	696.25
1558.087288	699.75
1558.600125	699.75
1559.112908	703.25
1559.625637	699.25
1560.138311	701.0
1560.650931	698.75
1561.163497	697.75
1561.676008	699.25
1562.188465	699.5
1562.700867	699.5
1563.213216	699.25
1563.725509	701.25
1564.237749	698.25
1564.749934	699.75
1565.262065	706.0
1565.774142	701.75
1566.286164	702.75
1566.798132	699.0
1567.310046	705.25
1567.821906	699.25
1568.333711	706.75
1568.845462	702.25
1569.357158	699.75
1569.868801	701.25
1570.380389	700.5
1570.891922	698.5
1571.403402	693.75
1571.914827	695.25
1572.426198	698.5
1572.937515	700.75
1573.448777	700.0
1573.959985	702.75
1574.471139	701.25
1574.982239	700.0
1575.493285	699.25
1576.004276	698.5
1576.515213	697.0
1577.026096	700.0
1577.536924	698.25
1578.047698	695.75
1578.558419	696.0
1579.069084	700.0
1579.579696	694.0
1580.090254	697.5
1580.600757	702.75
1581.111206	695.5
1581.621601	696.75
1582.131941	696.75
1582.642228	700.5
1583.15246	696.25
1583.662638	699.75
1584.172762	701.25
1584.682832	699.25
1585.192847	699.5
1585.702809	697.25
1586.212716	699.25
1586.722569	695.25
1587.232368	702.75
1587.742113	698.5
1588.251803	698.25
1588.76144	700.25
1589.271022	696.75
1589.78055	699.75
1590.290024	694.75
1590.799444	696.75
1591.30881	697.25
1591.818121	703.75
1592.327379	699.0
