1042.414189	701.75
1042.980685	699.25
1043.547124	695.25
1044.113505	697.25
1044.679828	697.75
1045.246093	692.25
1045.8123	689.25
1046.378449	690.5
1046.94454	686.25
1047.510573	685.75
1048.076548	688.25
1048.642465	688.5
1049.208325	683.5
1049.774126	682.25
1050.339869	680.75
1050.905555	680.75
1051.471183	681.75
1052.036752	683.0
1052.602264	679.0
1053.167718	682.5
1053.733114	678.5
1054.298452	680.0
1054.863733	679.75
1055.428955	676.75
1055.994119	676.0
1056.559226	677.25
1057.124275	675.75
1057.689266	675.75
1058.254199	677.0
1058.819074	673.0
1059.383891	674.75
1059.94865	675.5
1060.513352	676.75
1061.077996	673.25
1061.642582	676.25
1062.20711	672.75
1062.77158	675.0
1063.335992	674.75
1063.900347	675.0
1064.464643	673.75
1065.028882	678.75
1065.593063	672.25
1066.157187	674.0
1066.721252	674.75
1067.28526	675.5
1067.84921	672.0
1068.413102	674.5
1068.976936	672.5
1069.540713	670.0
1070.104431	680.5
1070.668092	673.75
1071.231696	673.75
1071.795241	672.5
1072.358729	668.5
1072.922159	671.5
1073.485531	673.5
1074.048845	670.75
1074.612102	670.0
1075.175301	668.75
1075.738442	675.25
1076.301525	671.0
1076.864551	673.5
1077.427519	672.5
1077.990429	671.0
1078.553281	669.5
1079.116076	674.5
1079.678813	670.0
1080.241492	670.75
1080.804114	672.5
1081.366678	673.25
1081.929184	671.5
1082.491633	674.5
1083.054024	671.5
1083.616357	673.5
1084.178632	668.75
1084.74085	671.0
1085.30301	673.75
1085.865113	668.0
1086.427158	672.5
1086.989145	669.0
1087.551074	670.25
1088.112946	673.75
1088.67476	669.25
1089.236517	669.5
1089.798216	668.25
1090.359857	669.5
1090.92144	671.0
1091.482966	669.0
1092.044435	672.75
1092.605845	672.0
1093.167199	669.5
1093.728494	669.75
1094.289732	669.75
1094.850912	668.5
1095.412035	676.0
1095.9731	674.25
1096.534107	673.5
1097.095057	674.25
1097.65595	671.25
1098.216784	670.75
1098.777561	672.0
1099.338281	669.5
1099.898943	666.25
1100.459547	670.5
1101.020094	670.5
1101.580584	670.25
1102.141015	669.0
1102.701389	669.0
1103.261706	669.0
1103.821965	672.25
1104.382167	669.5
1104.942311	672.0
1105.502397	670.25
1106.062426	671.25
1106.622398	668.25
1107.182312	670.25
1107.742168	672.0
1108.301967	674.0
1108.861708	672.5
1109.421392	669.75
1109.981019	670.75
1110.540587	667.5
1111.100099	668.5
1111.659553	670.75
1112.218949	670.75
1112.778288	668.25
1113.33757	667.75
1113.896794	669.25
1114.45596	665.0
1115.015069	671.5
1115.574121	669.0
1116.133115	670.25
1116.692052	668.0
1117.250931	670.0
1117.809753	669.0
1118.368517	668.5
1118.927224	666.5
1119.485873	670.25
1120.044465	668.5
1120.603	668.75
1121.161477	668.75
1121.719897	670.0
1122.278259	668.5
1122.836564	666.75
1123.394812	672.75
1123.953002	671.5
1124.511135	670.0
1125.06921	669.0
1125.627228	669.25
1126.185189	671.0
1126.743092	671.0
1127.300938	670.25
1127.858726	672.25
1128.416457	669.25
1128.974131	672.5
1129.531748	670.75
1130.089307	672.75
1130.646808	670.0
1131.204252	671.5
1131.761639	666.25
1132.318969	671.0
1132.876241	672.75
1133.433456	668.5
1133.990614	669.75
1134.547714	668.25
1135.104757	669.5
1135.661743	671.5
1136.218671	669.75
1136.775542	668.75
1137.332356	669.0
1137.889112	669.5
1138.445811	670.0
1139.002453	668.5
1139.559037	673.0
1140.115565	667.5
1140.672035	670.5
1141.228447	669.0
1141.784803	667.25
1142.341101	670.75
1142.897342	672.75
1143.453525	673.75
1144.009651	670.25
1144.565721	669.0
1145.121732	668.75
1145.677687	669.75
1146.233584	671.5
1146.789424	669.25
1147.345207	668.25
1147.900933	673.25
1148.456601	672.25
1149.012212	672.0
1149.567766	671.5
1150.123263	669.75
1150.678702	675.5
1151.234085	683.25
1151.78941	686.0
1152.344678	671.25
1152.899888	669.75
1153.455042	669.25
1154.010138	670.5
1154.565177	668.0
1155.120159	671.25
1155.675084	668.0
1156.229951	668.75
1156.784762	668.5
1157.339515	670.5
1157.894211	669.5
1158.44885	669.75
1159.003432	671.5
1159.557956	669.5
1160.112424	671.0
1160.666834	670.25
1161.221187	669.75
1161.775483	665.0
1162.329722	670.0
1162.883904	664.5
1163.438029	671.5
1163.992096	669.0
1164.546107	671.0
1165.10006	670.75
1165.653956	667.75
1166.207795	672.25
1166.761577	670.25
1167.315302	669.75
1167.86897	669.5
1168.422581	669.5
1168.976134	671.0
1169.529631	671.0
1170.08307	669.0
1170.636453	668.75
1171.189778	667.25
1171.743046	668.0
1172.296257	668.25
1172.849412	668.5
1173.402509	667.25
1173.955549	670.0
1174.508532	669.25
1175.061458	669.75
1175.614327	666.75
1176.167138	666.75
1176.719893	669.75
1177.272591	666.75
1177.825232	668.5
1178.377816	669.25
1178.930342	666.25
1179.482812	666.5
1180.035225	669.0
1180.587581	667.25
1181.139879	668.0
1181.692121	666.25
1182.244306	665.75
1182.796434	667.5
1183.348504	671.25
1183.900518	669.25
1184.452475	671.25
1185.004375	667.0
1185.556218	667.5
1186.108004	669.25
1186.659733	667.25
1187.211405	669.75
1187.76302	664.75
1188.314578	667.0
1188.866079	669.0
1189.417523	670.75
1189.96891	668.0
1190.520241	669.5
1191.071514	670.0
1191.622731	669.75
1192.17389	668.75
1192.724993	669.5
1193.276039	690.75
1193.827027	668.25
1194.377959	668.0
1194.928834	670.0
1195.479653	667.75
1196.030414	669.75
1196.581118	671.0
1197.131766	667.75
1197.682356	667.75
1198.23289	668.25
1198.783367	669.25
1199.333786	671.0
1199.88415	668.25
1200.434456	669.0
1200.984705	672.0
1201.534898	670.5
1202.085033	671.25
1202.635112	670.5
1203.185134	670.25
1203.735099	668.5
1204.285007	671.0
1204.834859	670.25
1205.384653	669.0
1205.934391	669.75
1206.484072	671.0
1207.033696	668.5
1207.583263	672.0
1208.132774	665.5
1208.682228	669.5
1209.231624	670.0
1209.780965	667.75
1210.330248	672.25
1210.879474	672.0
1211.428644	675.5
1211.977757	668.25
1212.526813	671.75
1213.075813	666.75
1213.624755	667.5
1214.173641	670.25
1214.72247	671.25
1215.271242	671.0
1215.819958	669.25
1216.368617	671.5
1216.917219	669.25
1217.465764	669.5
1218.014253	669.0
1218.562685	670.0
1219.11106	670.25
1219.659378	668.25
1220.20764	669.0
1220.755845	670.0
1221.303993	669.5
1221.852085	666.25
1222.400119	669.0
1222.948097	673.25
1223.496019	667.0
1224.043883	672.25
1224.591691	671.25
1225.139443	671.5
1225.687137	669.75
1226.234775	668.25
1226.782357	670.0
1227.329881	670.0
1227.877349	672.0
1228.42476	671.0
1228.972115	671.75
1229.519413	670.0
1230.066654	666.5
1230.613839	671.75
1231.160967	668.25
1231.708038	674.25
1232.255053	671.5
1232.802011	673.25
1233.348912	672.75
1233.895757	669.75
1234.442545	669.25
1234.989277	670.0
1235.535951	671.25
1236.08257	670.75
1236.629131	669.5
1237.175636	671.25
1237.722085	672.0
1238.268477	669.5
1238.814812	670.5
1239.361091	669.25
1239.907313	668.5
1240.453478	668.25
1240.999587	671.0
1241.54564	672.25
1242.091636	669.75
1242.637575	672.5
1243.183457	669.0
1243.729284	671.5
1244.275053	667.75
1244.820766	672.0
1245.366423	673.25
1245.912022	671.0
1246.457566	673.0
1247.003053	669.5
1247.548483	673.25
1248.093857	670.0
1248.639174	671.75
1249.184435	671.5
1249.729639	670.75
1250.274787	672.5
1250.819878	673.5
1251.364912	672.25
1251.909891	671.0
1252.454812	670.25
1252.999677	671.5
1253.544486	669.25
1254.089238	673.25
1254.633934	670.25
1255.178573	672.75
1255.723156	672.25
1256.267682	669.75
1256.812152	670.0
1257.356565	673.0
1257.900922	672.75
1258.445223	671.0
1258.989467	669.0
1259.533654	671.0
1260.077785	687.25
1260.62186	674.25
1261.165878	676.0
1261.70984	671.0
1262.253745	669.0
1262.797594	672.5
1263.341386	672.0
1263.885123	675.25
1264.428802	679.0
1264.972425	681.0
1265.515992	699.5
1266.059503	705.0
1266.602957	694.25
1267.146354	678.0
1267.689696	675.5
1268.23298	674.25
1268.776209	672.75
1269.319381	673.5
1269.862497	672.0
1270.405556	669.75
1270.948559	673.25
1271.491506	673.25
1272.034396	671.0
1272.57723	673.0
1273.120007	671.5
1273.662728	669.5
1274.205393	670.0
1274.748002	673.25
1275.290554	675.5
1275.83305	668.5
1276.375489	672.0
1276.917872	672.0
1277.460199	671.75
1278.00247	671.25
1278.544684	672.5
1279.086842	674.5
1279.628943	673.25
1280.170989	671.75
1280.712978	671.5
1281.25491	674.25
1281.796787	671.75
1282.338607	673.5
1282.880371	675.0
1283.422078	679.5
1283.963729	683.0
1284.505324	698.25
1285.046863	740.0
1285.588345	907.25
1286.129772	1194.0
1286.671142	1003.75
1287.212455	750.0
1287.753713	691.75
1288.294914	688.5
1288.836059	676.5
1289.377147	675.25
1289.91818	675.75
1290.459156	674.25
1291.000076	672.75
1291.54094	672.25
1292.081747	673.5
1292.622499	672.75
1293.163194	674.25
1293.703833	673.5
1294.244415	670.0
1294.784942	670.75
1295.325412	673.25
1295.865826	671.5
1296.406184	675.5
1296.946486	673.5
1297.486731	673.75
1298.026921	669.25
1298.567054	671.0
1299.107131	671.5
1299.647152	673.25
1300.187116	673.25
1300.727025	667.5
1301.266877	668.25
1301.806673	669.0
1302.346413	671.25
1302.886097	668.5
1303.425725	669.0
1303.965297	670.25
1304.504812	667.75
1305.044272	673.75
1305.583675	673.25
1306.123022	674.0
1306.662313	669.75
1307.201548	668.5
1307.740727	672.0
1308.279849	673.25
1308.818916	670.0
1309.357926	670.5
1309.896881	672.5
1310.435779	671.25
1310.974621	673.75
1311.513407	670.75
1312.052137	670.0
1312.590811	668.75
1313.129429	671.5
1313.667991	674.0
1314.206497	673.0
1314.744946	671.0
1315.28334	670.5
1315.821678	672.75
1316.359959	670.5
1316.898184	671.5
1317.436354	670.25
1317.974467	670.75
1318.512525	669.25
1319.050526	670.5
1319.588471	671.0
1320.12636	672.0
1320.664194	675.75
1321.201971	669.75
1321.739692	672.0
1322.277357	670.5
1322.814967	671.0
1323.35252	671.0
1323.890017	675.75
1324.427458	672.25
1324.964843	671.5
1325.502173	670.75
1326.039446	675.5
1326.576663	671.5
1327.113824	670.5
1327.65093	672.25
1328.187979	668.5
1328.724972	670.5
1329.26191	673.0
1329.798791	670.0
1330.335617	671.75
1330.872386	671.25
1331.4091	670.0
1331.945758	674.5
1332.48236	673.25
1333.018905	671.75
1333.555395	671.75
1334.091829	670.25
1334.628207	670.25
1335.164529	667.75
1335.700796	673.25
1336.237006	669.25
1336.77316	670.25
1337.309259	671.75
1337.845301	667.75
1338.381288	668.5
1338.917219	671.75
1339.453094	672.25
1339.988913	670.25
1340.524676	669.25
1341.060383	667.25
1341.596034	671.25
1342.13163	668.5
1342.66717	673.0
1343.202653	673.5
1343.738081	671.0
1344.273453	672.75
1344.80877	671.75
1345.34403	671.5
1345.879235	671.0
1346.414383	669.75
1346.949476	669.5
1347.484513	671.5
1348.019494	666.5
1348.55442	672.0
1349.089289	672.25
1349.624103	670.0
1350.158861	667.75
1350.693563	669.5
1351.228209	669.0
1351.7628	668.75
1352.297334	672.0
1352.831813	673.0
1353.366236	673.25
1353.900604	670.75
1354.434915	674.75
1354.969171	671.25
1355.503371	671.25
1356.037515	669.25
1356.571604	675.25
1357.105636	668.25
1357.639613	666.5
1358.173535	671.25
1358.7074	667.75
1359.24121	672.0
1359.774964	670.0
1360.308662	669.75
1360.842304	671.25
1361.375891	674.0
1361.909422	670.25
1362.442897	672.75
1362.976317	673.25
1363.50968	671.75
1364.042989	671.0
1364.576241	673.5
1365.109438	673.5
1365.642579	674.25
1366.175664	670.0
1366.708693	673.75
1367.241667	674.25
1367.774585	671.75
1368.307448	670.75
1368.840255	674.0
1369.373006	671.5
1369.905701	671.25
1370.438341	672.75
1370.970925	684.5
1371.503454	676.25
1372.035926	677.5
1372.568344	672.25
1373.100705	672.25
1373.633011	670.25
1374.165261	672.75
1374.697456	671.25
1375.229595	672.5
1375.761678	669.5
1376.293705	671.5
1376.825677	673.0
1377.357594	670.25
1377.889455	674.75
1378.42126	668.5
1378.953009	672.75
1379.484703	671.25
1380.016342	668.5
1380.547924	673.0
1381.079452	673.5
1381.610923	676.25
1382.142339	675.25
1382.673699	672.5
1383.205004	673.75
1383.736253	675.75
1384.267447	673.0
1384.798585	674.25
1385.329668	673.25
1385.860695	677.5
1386.391666	682.0
1386.922582	688.5
1387.453442	692.25
1387.984247	713.5
1388.514996	811.5
1389.04569	1297.5
1389.576328	1540.75
1390.10691	911.0
1390.637437	727.5
1391.167909	692.25
1391.698325	679.75
1392.228685	679.0
1392.75899	678.0
1393.28924	671.75
1393.819434	676.75
1394.349572	674.5
1394.879655	674.5
1395.409683	673.75
1395.939655	673.75
1396.469571	673.75
1396.999432	670.0
1397.529237	669.5
1398.058987	671.75
1398.588682	673.0
1399.118321	674.5
1399.647905	669.5
1400.177433	673.25
1400.706906	671.25
1401.236323	671.25
1401.765685	672.75
1402.294991	671.25
1402.824242	673.5
1403.353437	671.5
1403.882577	674.5
1404.411662	672.25
1404.940691	673.0
1405.469665	670.25
1405.998583	672.25
1406.527446	671.75
1407.056253	674.75
1407.585005	671.5
1408.113702	675.25
1408.642343	676.75
1409.170929	676.0
1409.69946	685.0
1410.227935	714.75
1410.756354	743.0
1411.284719	709.75
1411.813028	683.0
1412.341281	677.25
1412.869479	674.0
1413.397622	672.25
1413.92571	675.0
1414.453742	670.75
1414.981718	672.25
1415.50964	683.75
1416.037506	670.25
1416.565316	670.5
1417.093072	673.25
1417.620772	671.0
1418.148416	675.25
1418.676005	672.0
1419.203539	672.5
1419.731018	666.75
1420.258441	671.5
1420.785809	671.75
1421.313122	674.0
1421.840379	671.5
1422.367582	673.0
1422.894728	670.0
1423.42182	667.0
1423.948856	671.75
1424.475837	673.25
1425.002762	671.25
1425.529633	670.25
1426.056448	671.5
1426.583207	674.5
1427.109912	670.75
1427.636561	672.25
1428.163155	670.75
1428.689694	671.25
1429.216177	670.0
1429.742605	669.75
1430.268978	668.0
1430.795296	669.0
1431.321558	674.75
1431.847765	670.75
1432.373917	670.25
1432.900014	671.5
1433.426056	671.25
1433.952042	668.75
1434.477973	671.5
1435.003849	669.5
1435.529669	666.5
1436.055435	670.5
1436.581145	672.25
1437.1068	667.25
1437.632399	669.0
1438.157944	671.0
1438.683433	671.25
1439.208868	669.75
1439.734247	667.5
1440.25957	667.25
1440.784839	669.5
1441.310053	669.5
1441.835211	669.0
1442.360314	668.25
1442.885362	671.25
1443.410355	667.75
1443.935292	666.25
1444.460175	665.25
1444.985002	672.5
1445.509774	670.25
1446.034491	670.5
1446.559153	669.25
1447.08376	669.75
1447.608312	667.5
1448.132808	667.0
1448.65725	667.0
1449.181636	668.5
1449.705967	673.5
1450.230243	663.75
1450.754464	668.75
1451.27863	671.25
1451.802741	670.0
1452.326797	669.5
1452.850797	668.5
1453.374743	669.0
1453.898633	668.75
1454.422468	670.25
1454.946249	667.5
1455.469974	665.75
1455.993644	667.5
1456.517259	668.5
1457.040819	671.0
1457.564324	669.0
1458.087773	664.5
1458.611168	670.75
1459.134508	666.75
1459.657793	669.5
1460.181022	672.0
1460.704197	665.0
1461.227316	670.75
1461.750381	669.0
1462.27339	669.5
1462.796345	675.0
1464.364878	670.25
1464.887613	669.5
1465.410292	668.75
1465.932916	668.25
1466.455486	668.25
1466.978	668.75
1467.50046	669.25
1468.022864	668.5
1468.545214	667.5
1469.067508	667.5
1469.589748	667.25
1470.111932	669.75
1470.634062	669.25
1471.156136	666.75
1471.678156	667.75
1472.20012	672.5
1472.72203	666.5
1473.243885	667.0
1473.765685	665.5
1474.28743	668.5
1474.80912	664.25
1475.330755	669.75
1475.852335	666.5
1476.37386	668.25
1476.89533	667.75
1477.416745	666.0
1477.938106	667.75
1478.459411	668.25
1478.980662	668.75
1479.501857	667.25
1480.022998	664.75
1480.544084	668.5
1481.065115	666.75
1481.586091	665.5
1482.107012	669.75
1482.627878	667.25
1483.14869	669.0
1483.669446	668.75
1484.190148	669.5
1484.710794	668.5
1485.231386	667.5
1485.751923	664.75
1486.272406	668.25
1486.792833	667.5
1487.313205	668.25
1487.833523	669.75
1488.353786	669.0
1488.873994	668.5
1489.394147	670.25
1489.914245	668.5
1490.434288	668.5
1490.954277	669.0
1491.474211	669.75
1491.99409	668.0
1492.513914	671.0
1493.033683	669.0
1493.553398	669.5
1494.073057	666.5
1494.592662	666.5
1495.112212	668.5
1495.631708	666.5
1496.151148	670.5
1496.670534	668.0
1497.189865	668.0
1497.709141	668.0
1498.228362	668.5
1498.747529	668.5
1499.266641	665.75
1499.785698	677.25
1500.3047	670.25
1500.823648	668.0
1501.34254	672.5
1501.861379	667.5
1502.380162	668.25
1502.89889	670.0
1503.417564	670.5
1503.936183	667.5
1504.454748	669.5
1504.973257	668.5
1505.491712	666.5
1506.010112	669.0
1506.528458	667.5
1507.046748	670.0
1507.564984	670.75
1508.083166	668.25
1508.601292	669.25
1509.119364	665.25
1509.637381	668.5
1510.155344	666.25
1510.673252	677.5
1511.191105	667.5
1511.708903	666.25
1512.226647	670.25
1512.744336	668.5
1513.261971	672.0
1513.77955	666.25
1514.297076	664.0
1514.814546	668.75
1515.331962	667.5
1515.849323	668.25
1516.366629	669.5
1516.883881	666.75
1517.401078	666.25
1517.918221	668.5
1518.435309	666.75
1518.952342	666.5
1519.469321	668.75
1519.986245	667.75
1520.503114	667.0
1521.019929	671.25
1521.536689	668.0
1522.053395	667.0
1522.570046	666.5
1523.086642	667.75
1523.603184	670.0
1524.119671	666.5
1524.636103	669.25
1525.152481	667.0
1525.668805	673.0
1526.185073	696.25
1526.701288	701.75
1527.217447	676.0
1527.733552	667.75
1528.249603	667.0
1528.765599	667.25
1529.28154	666.0
1529.797427	668.5
1530.313259	667.5
1530.829037	670.0
1531.34476	669.5
1531.860429	665.0
1532.376043	667.5
1532.891602	666.5
1533.407107	669.25
1533.922558	668.5
1534.437954	666.75
1534.953295	664.25
1535.468582	667.25
1535.983815	669.25
1536.498993	667.25
1537.014116	668.25
1537.529185	669.0
1538.044199	670.5
1538.559159	668.75
1539.074064	668.75
1539.588915	674.5
1540.103712	669.75
1540.618454	669.75
1541.133141	668.25
1541.647774	667.25
1542.162353	667.25
1542.676877	670.5
1543.191346	669.25
1543.705761	667.75
1544.220122	670.25
1544.734428	665.75
1545.24868	669.25
1545.762877	667.0
1546.27702	668.25
1546.791109	667.5
1547.305143	668.75
1547.819122	669.75
1548.333047	668.0
1548.846918	668.75
1549.360734	667.25
1549.874496	667.5
1550.388204	670.75
1550.901857	668.25
1551.415455	670.5
1551.929	670.25
1552.442489	673.0
1552.955925	667.75
1553.469306	671.5
1553.982632	669.0
1554.495905	670.5
1555.009123	668.0
1555.522286	672.25
1556.035395	671.75
1556.54845	669.75
1557.06145	671.25
1557.574396	669.75
1558.087288	672.0
1558.600125	668.0
1559.112908	671.75
1559.625637	671.25
1560.138311	672.75
1560.650931	669.0
1561.163497	673.0
1561.676008	666.25
1562.188465	672.25
1562.700867	669.25
1563.213216	670.5
1563.725509	670.0
1564.237749	671.5
1564.749934	671.75
1565.262065	679.0
1565.774142	672.25
1566.286164	671.5
1566.798132	672.0
1567.310046	671.75
1567.821906	676.0
1568.333711	675.0
1568.845462	673.5
1569.357158	671.75
1569.868801	670.5
1570.380389	674.5
1570.891922	670.75
1571.403402	670.75
1571.914827	671.75
1572.426198	669.5
1572.937515	671.75
1573.448777	668.25
1573.959985	670.25
1574.471139	672.5
1574.982239	667.5
1575.493285	668.5
1576.004276	672.75
1576.515213	669.75
1577.026096	670.75
1577.536924	669.0
1578.047698	667.25
1578.558419	667.25
1579.069084	669.75
1579.579696	670.25
1580.090254	669.0
1580.600757	668.0
1581.111206	667.25
1581.621601	669.5
1582.131941	671.75
1582.642228	668.75
1583.15246	667.75
1583.662638	669.25
1584.172762	667.75
1584.682832	666.0
1585.192847	669.5
1585.702809	671.25
1586.212716	671.75
1586.722569	669.75
1587.232368	670.25
1587.742113	668.25
1588.251803	673.5
1588.76144	668.5
1589.271022	669.75
1589.78055	669.25
1590.290024	667.5
1590.799444	668.5
1591.30881	667.0
1591.818121	671.5
1592.327379	665.5
