1042.980685	836.0
1043.547124	827.5
1044.113505	830.75
1044.679828	829.75
1045.246093	829.75
1045.8123	820.25
1046.378449	832.75
1046.94454	826.5
1047.510573	826.25
1048.076548	821.5
1048.642465	828.0
1049.208325	825.5
1049.774126	807.75
1050.339869	818.5
1050.905555	823.75
1051.471183	820.5
1052.036752	818.5
1052.602264	817.25
1053.167718	824.0
1053.733114	823.75
1054.298452	817.25
1054.863733	826.0
1055.428955	818.5
1055.994119	819.0
1056.559226	825.0
1057.124275	814.5
1057.689266	815.0
1058.254199	814.0
1058.819074	810.25
1059.383891	820.75
1059.94865	813.5
1060.513352	819.5
1061.077996	815.5
1061.642582	817.75
1062.20711	821.5
1062.77158	815.5
1063.335992	807.0
1063.900347	816.75
1064.464643	819.25
1065.028882	813.75
1065.593063	822.75
1066.157187	807.25
1066.721252	814.5
1067.28526	815.0
1067.84921	804.25
1068.413102	815.75
1068.976936	820.0
1069.540713	816.0
1070.104431	825.75
1070.668092	818.5
1071.231696	814.75
1071.795241	816.5
1072.358729	823.0
1072.922159	824.5
1073.485531	816.0
1074.048845	821.0
1074.612102	815.5
1075.175301	817.75
1075.738442	812.75
1076.301525	819.5
1076.864551	814.75
1077.427519	815.0
1077.990429	824.0
1078.553281	816.5
1079.116076	820.5
1079.678813	815.25
1080.241492	814.75
1080.804114	821.25
1081.366678	816.25
1081.929184	814.25
1082.491633	814.5
1083.054024	816.25
1083.616357	826.5
1084.178632	809.5
1084.74085	814.0
1085.30301	816.75
1085.865113	824.25
1086.427158	810.0
1086.989145	820.75
1087.551074	823.75
1088.112946	813.25
1088.67476	817.0
1089.236517	827.0
1089.798216	812.5
1090.359857	819.5
1090.92144	818.75
1091.482966	818.0
1092.044435	813.0
1092.605845	819.5
1093.167199	827.0
1093.728494	816.5
1094.289732	808.5
1094.850912	817.75
1095.412035	820.25
1095.9731	812.5
1096.534107	827.25
1097.095057	827.0
1097.65595	812.5
1098.216784	811.75
1098.777561	823.75
1099.338281	819.5
1099.898943	826.0
1100.459547	824.0
1101.020094	825.75
1101.580584	815.25
1102.141015	812.0
1102.701389	824.5
1103.261706	810.25
1103.821965	824.25
1104.382167	818.75
1104.942311	819.75
1105.502397	819.0
1106.062426	816.25
1106.622398	822.0
1107.182312	824.75
1107.742168	814.5
1108.301967	823.0
1108.861708	820.25
1109.421392	820.75
1109.981019	831.75
1110.540587	818.25
1111.100099	817.75
1111.659553	817.25
1112.218949	818.25
1112.778288	825.25
1113.33757	816.5
1113.896794	816.75
1114.45596	820.5
1115.015069	825.25
1115.574121	816.0
1116.133115	811.75
1116.692052	821.5
1117.250931	820.25
1117.809753	812.0
1118.368517	816.0
1118.927224	823.25
1119.485873	814.5
1120.044465	818.5
1120.603	816.0
1121.161477	820.5
1121.719897	810.0
1122.278259	822.25
1122.836564	821.75
1123.394812	820.75
1123.953002	815.0
1124.511135	817.5
1125.06921	817.5
1125.627228	817.0
1126.185189	814.75
1126.743092	810.25
1127.300938	820.0
1127.858726	825.0
1128.416457	825.5
1128.974131	818.25
1129.531748	820.5
1130.089307	819.5
1130.646808	821.5
1131.204252	822.75
1131.761639	828.0
1132.318969	820.75
1132.876241	821.25
1133.433456	821.75
1133.990614	818.5
1134.547714	817.25
1135.104757	815.5
1135.661743	814.5
1136.218671	827.0
1136.775542	817.25
1137.332356	824.0
1137.889112	816.5
1138.445811	812.75
1139.002453	825.25
1139.559037	818.5
1140.115565	823.25
1140.672035	821.75
1141.228447	811.0
1141.784803	817.25
1142.341101	821.0
1142.897342	820.0
1143.453525	814.25
1144.009651	818.75
1144.565721	817.5
1145.121732	820.0
1145.677687	822.5
1146.233584	823.75
1146.789424	826.0
1147.345207	822.25
1147.900933	813.0
1148.456601	822.25
1149.012212	811.25
1149.567766	820.25
1150.123263	819.5
1150.678702	821.0
1151.234085	825.5
1151.78941	822.75
1152.344678	818.5
1152.899888	819.5
1153.455042	822.25
1154.010138	830.5
1154.565177	815.0
1155.120159	822.25
1155.675084	813.5
1156.229951	819.0
1156.784762	817.0
1157.339515	822.5
1157.894211	818.0
1158.44885	820.75
1159.003432	826.5
1159.557956	822.25
1160.112424	824.0
1160.666834	826.75
1161.221187	811.5
1161.775483	824.0
1162.329722	822.5
1162.883904	824.0
1163.438029	820.5
1163.992096	817.25
1164.546107	818.25
1165.10006	819.25
1165.653956	816.5
1166.207795	822.5
1166.761577	820.25
1167.315302	822.5
1167.86897	820.75
1168.422581	823.75
1168.976134	823.25
1169.529631	817.25
1170.08307	816.75
1170.636453	816.25
1171.189778	817.25
1171.743046	810.75
1172.296257	818.5
1172.849412	817.75
1173.402509	823.0
1173.955549	815.25
1174.508532	817.0
1175.061458	824.25
1175.614327	816.0
1176.167138	815.25
1176.719893	822.25
1177.272591	820.5
1177.825232	821.5
1178.377816	813.75
1178.930342	818.0
1179.482812	807.75
1180.035225	813.25
1180.587581	821.75
1181.139879	822.5
1181.692121	819.0
1182.244306	815.75
1182.796434	823.25
1183.348504	815.0
1183.900518	815.5
1184.452475	812.25
1185.004375	819.25
1185.556218	818.5
1186.108004	820.0
1186.659733	818.25
1187.211405	814.5
1187.76302	815.5
1188.314578	815.5
1188.866079	819.5
1189.417523	821.5
1189.96891	819.5
1190.520241	820.25
1191.071514	814.25
1191.622731	820.5
1192.17389	812.25
1192.724993	814.5
1193.276039	838.25
1193.827027	820.0
1194.377959	818.5
1194.928834	822.0
1195.479653	820.75
1196.030414	817.75
1196.581118	820.0
1197.131766	815.5
1197.682356	812.75
1198.23289	822.75
1198.783367	819.5
1199.333786	819.5
1199.88415	817.25
1200.434456	812.75
1200.984705	819.25
1201.534898	813.0
1202.085033	820.75
1202.635112	811.75
1203.185134	813.25
1203.735099	814.25
1204.285007	818.0
1204.834859	815.0
1205.384653	819.5
1205.934391	816.25
1206.484072	814.75
1207.033696	814.75
1207.583263	820.0
1208.132774	814.25
1208.682228	813.75
1209.231624	819.75
1209.780965	814.5
1210.330248	820.0
1210.879474	812.5
1211.428644	822.5
1211.977757	814.5
1212.526813	826.25
1213.075813	822.0
1213.624755	813.75
1214.173641	822.5
1214.72247	814.25
1215.271242	821.25
1215.819958	817.75
1216.368617	811.0
1216.917219	807.5
1217.465764	816.75
1218.014253	811.25
1218.562685	813.0
1219.11106	812.25
1219.659378	809.0
1220.20764	817.5
1220.755845	813.5
1221.303993	811.75
1221.852085	811.0
1222.400119	816.75
1222.948097	810.0
1223.496019	813.0
1224.043883	811.75
1224.591691	813.75
1225.139443	814.5
1225.687137	820.75
1226.234775	814.75
1226.782357	818.75
1227.329881	818.5
1227.877349	815.25
1228.42476	812.75
1228.972115	821.75
1229.519413	812.25
1230.066654	816.75
1230.613839	811.5
1231.160967	813.25
1231.708038	813.5
1232.255053	814.75
1232.802011	815.5
1233.348912	816.75
1233.895757	817.75
1234.442545	812.75
1234.989277	810.75
1235.535951	816.25
1236.08257	817.0
1236.629131	811.0
1237.175636	815.25
1237.722085	821.0
1238.268477	816.75
1238.814812	813.25
1239.361091	815.25
1239.907313	811.5
1240.453478	814.5
1240.999587	813.25
1241.54564	812.0
1242.091636	817.5
1242.637575	814.25
1243.183457	810.25
1243.729284	819.25
1244.275053	819.25
1244.820766	823.5
1245.366423	816.75
1245.912022	817.75
1246.457566	813.0
1247.003053	822.25
1247.548483	813.5
1248.093857	812.5
1248.639174	813.25
1249.184435	818.75
1249.729639	812.75
1250.274787	815.25
1250.819878	824.25
1251.364912	815.75
1251.909891	818.0
1252.454812	813.75
1252.999677	812.0
1253.544486	810.25
1254.089238	810.5
1254.633934	815.25
1255.178573	814.25
1255.723156	813.25
1256.267682	813.75
1256.812152	810.75
1257.356565	816.5
1257.900922	813.25
1258.445223	812.0
1258.989467	809.5
1259.533654	815.25
1260.077785	831.25
1260.62186	815.25
1261.165878	813.75
1261.70984	821.25
1262.253745	819.25
1262.797594	823.0
1263.341386	825.0
1263.885123	814.0
1264.428802	825.5
1264.972425	830.25
1265.515992	839.75
1266.059503	852.5
1266.602957	840.5
1267.146354	821.0
1267.689696	820.75
1268.23298	814.5
1268.776209	823.0
1269.319381	817.75
1269.862497	819.25
1270.405556	810.5
1270.948559	805.0
1271.491506	820.0
1272.034396	819.25
1272.57723	815.75
1273.120007	813.75
1273.662728	822.5
1274.205393	813.5
1274.748002	816.75
1275.290554	814.5
1275.83305	808.0
1276.375489	813.0
1276.917872	816.75
1277.460199	817.25
1278.00247	816.25
1278.544684	813.75
1279.086842	814.75
1279.628943	817.0
1280.170989	815.5
1280.712978	808.75
1281.25491	818.5
1281.796787	810.75
1282.338607	821.75
1282.880371	814.5
1283.422078	819.75
1283.963729	825.25
1284.505324	831.25
1285.046863	874.25
1285.588345	990.5
1286.129772	1084.75
1286.671142	985.5
1287.212455	861.0
1287.753713	831.25
1288.294914	820.25
1288.836059	818.0
1289.377147	808.25
1289.91818	817.25
1290.459156	806.0
1291.000076	809.25
1291.54094	811.75
1292.081747	810.0
1292.622499	817.5
1293.163194	819.75
1293.703833	809.0
1294.244415	810.25
1294.784942	812.5
1295.325412	811.25
1295.865826	816.5
1296.406184	811.5
1296.946486	812.0
1297.486731	808.25
1298.026921	803.0
1298.567054	810.25
1299.107131	812.5
1299.647152	812.5
1300.187116	816.25
1300.727025	811.75
1301.266877	810.75
1301.806673	816.25
1302.346413	807.5
1302.886097	818.25
1303.425725	813.0
1303.965297	820.25
1304.504812	810.25
1305.044272	810.0
1305.583675	798.75
1306.123022	816.75
1306.662313	809.75
1307.201548	803.75
1307.740727	808.0
1308.279849	806.75
1308.818916	820.25
1309.357926	808.5
1309.896881	806.75
1310.435779	812.25
1310.974621	807.5
1311.513407	803.25
1312.052137	806.5
1312.590811	813.0
1313.129429	810.0
1313.667991	815.0
1314.206497	806.75
1314.744946	804.0
1315.28334	808.0
1315.821678	808.25
1316.359959	812.25
1316.898184	812.5
1317.436354	813.75
1317.974467	806.75
1318.512525	809.25
1319.050526	808.75
1319.588471	814.5
1320.12636	803.25
1320.664194	806.0
1321.201971	803.25
1321.739692	809.25
1322.277357	808.75
1322.814967	806.5
1323.35252	802.5
1323.890017	814.5
1324.427458	809.0
1324.964843	813.0
1325.502173	809.25
1326.039446	811.0
1326.576663	803.5
1327.113824	807.5
1327.65093	813.75
1328.187979	814.5
1328.724972	805.5
1329.26191	804.0
1329.798791	805.0
1330.335617	807.0
1330.872386	811.25
1331.4091	807.75
1331.945758	814.0
1332.48236	808.75
1333.018905	806.0
1333.555395	814.0
1334.091829	814.0
1334.628207	812.75
1335.164529	815.75
1335.700796	810.75
1336.237006	818.25
1336.77316	806.0
1337.309259	809.75
1337.845301	814.25
1338.381288	809.75
1338.917219	807.0
1339.453094	806.0
1339.988913	804.5
1340.524676	812.5
1341.060383	804.25
1341.596034	808.75
1342.13163	810.25
1342.66717	811.5
1343.202653	809.5
1343.738081	811.5
1344.273453	807.0
1344.80877	804.75
1345.34403	809.75
1345.879235	812.0
1346.414383	808.25
1346.949476	810.5
1347.484513	810.75
1348.019494	804.75
1348.55442	807.5
1349.089289	811.5
1349.624103	811.75
1350.158861	807.0
1350.693563	805.75
1351.228209	806.75
1351.7628	805.5
1352.297334	808.75
1352.831813	798.5
1353.366236	813.5
1353.900604	811.0
1354.434915	808.75
1354.969171	811.0
1355.503371	813.25
1356.037515	813.75
1356.571604	807.75
1357.105636	804.5
1357.639613	807.25
1358.173535	806.75
1358.7074	803.5
1359.24121	810.75
1359.774964	804.0
1360.308662	811.0
1360.842304	804.75
1361.375891	806.5
1361.909422	804.25
1362.442897	810.0
1362.976317	799.25
1363.50968	811.0
1364.042989	814.25
1364.576241	813.75
1365.109438	802.25
1365.642579	803.25
1366.175664	808.75
1366.708693	807.0
1367.241667	808.5
1367.774585	809.25
1368.307448	809.5
1368.840255	803.75
1369.373006	812.5
1369.905701	809.5
1370.438341	809.5
1370.970925	809.0
1371.503454	807.0
1372.035926	804.25
1372.568344	803.5
1373.100705	813.0
1373.633011	805.5
1374.165261	809.75
1374.697456	805.75
1375.229595	803.0
1375.761678	811.5
1376.293705	817.0
1376.825677	811.25
1377.357594	804.5
1377.889455	803.0
1378.42126	806.0
1378.953009	806.75
1379.484703	805.0
1380.016342	809.25
1380.547924	803.75
1381.079452	813.5
1381.610923	805.75
1382.142339	808.5
1382.673699	804.0
1383.205004	807.0
1383.736253	814.25
1384.267447	807.5
1384.798585	810.75
1385.329668	800.75
1385.860695	808.75
1386.391666	815.25
1386.922582	827.5
1387.453442	822.75
1387.984247	830.75
1388.514996	918.0
1389.04569	1197.25
1389.576328	1231.5
1390.10691	927.75
1390.637437	835.75
1391.167909	812.25
1391.698325	812.0
1392.228685	809.5
1392.75899	816.75
1393.28924	795.0
1393.819434	807.0
1394.349572	800.75
1394.879655	805.25
1395.409683	807.0
1395.939655	805.0
1396.469571	803.5
1396.999432	808.0
1397.529237	804.5
1398.058987	805.0
1398.588682	805.25
1399.118321	798.75
1399.647905	804.75
1400.177433	800.75
1400.706906	801.25
1401.236323	796.0
1401.765685	802.25
1402.294991	805.5
1402.824242	802.0
1403.353437	800.5
1403.882577	799.5
1404.411662	799.25
1404.940691	796.25
1405.469665	803.25
1405.998583	803.75
1406.527446	801.25
1407.056253	803.5
1407.585005	801.0
1408.113702	808.25
1408.642343	801.75
1409.170929	804.25
1409.69946	817.75
1410.227935	845.0
1410.756354	868.25
1411.284719	841.5
1411.813028	804.75
1412.341281	800.25
1412.869479	804.75
1413.397622	799.25
1413.92571	806.5
1414.453742	799.75
1414.981718	790.5
1415.50964	815.0
1416.037506	798.0
1416.565316	800.5
1417.093072	799.5
1417.620772	800.25
1418.148416	801.75
1418.676005	794.0
1419.203539	797.0
1419.731018	800.75
1420.258441	798.5
1420.785809	795.25
1421.313122	797.25
1421.840379	788.75
1422.367582	794.5
1422.894728	794.5
1423.42182	798.5
1423.948856	785.75
1424.475837	796.0
1425.002762	792.5
1425.529633	797.25
1426.056448	793.75
1426.583207	791.5
1427.109912	807.5
1427.636561	800.75
1428.163155	791.0
1428.689694	795.5
1429.216177	791.5
1429.742605	796.25
1430.268978	787.0
1430.795296	793.5
1431.321558	791.25
1431.847765	796.75
1432.373917	788.25
1432.900014	793.0
1433.426056	794.5
1433.952042	791.75
1434.477973	798.75
1435.003849	795.25
1435.529669	789.75
1436.055435	796.0
1436.581145	790.75
1437.1068	790.25
1437.632399	792.5
1438.157944	794.25
1438.683433	791.0
1439.208868	785.0
1439.734247	794.75
1440.25957	792.5
1440.784839	786.5
1441.310053	798.5
1441.835211	784.5
1442.360314	785.0
1442.885362	789.5
1443.410355	787.25
1443.935292	788.25
1444.460175	788.25
1444.985002	791.0
1445.509774	790.75
1446.034491	782.75
1446.559153	776.5
1447.08376	786.5
1447.608312	783.5
1448.132808	782.0
1448.65725	784.75
1449.181636	782.25
1449.705967	778.75
1450.230243	781.0
1450.754464	790.25
1451.27863	782.5
1451.802741	790.0
1452.326797	777.75
1452.850797	787.0
1453.374743	781.0
1453.898633	779.0
1454.422468	784.0
1454.946249	779.0
1455.469974	783.75
1455.993644	780.5
1456.517259	782.0
1457.040819	780.25
1457.564324	784.25
1458.087773	781.0
1458.611168	779.0
1459.134508	778.0
1459.657793	782.75
1460.181022	788.75
1460.704197	777.5
1461.227316	780.0
1461.750381	776.0
1462.27339	778.0
1462.796345	788.5
1463.319244	790.0
1463.842089	787.5
1464.364878	785.0
1464.887613	783.5
1465.410292	786.75
1465.932916	781.0
1466.455486	776.75
1466.978	778.5
1467.50046	783.5
1468.022864	779.25
1468.545214	773.25
1469.067508	783.75
1469.589748	782.25
1470.111932	776.75
1470.634062	780.0
1471.156136	778.75
1471.678156	778.0
1472.20012	785.0
1472.72203	783.0
1473.243885	776.25
1473.765685	775.75
1474.28743	771.0
1474.80912	783.75
1475.330755	777.0
1475.852335	768.25
1476.37386	774.5
1476.89533	771.0
1477.416745	779.25
1477.938106	779.0
1478.459411	769.5
1478.980662	776.25
1479.501857	776.0
1480.022998	779.5
1480.544084	773.75
1481.065115	779.5
1481.586091	777.25
1482.107012	778.25
1482.627878	767.25
1483.14869	771.0
1483.669446	777.5
1484.190148	776.5
1484.710794	775.75
1485.231386	778.25
1485.751923	769.5
1486.272406	775.75
1486.792833	769.0
1487.313205	772.0
1487.833523	775.75
1488.353786	777.25
1488.873994	768.5
1489.394147	773.25
1489.914245	769.75
1490.434288	770.5
1490.954277	772.25
1491.474211	777.5
1491.99409	770.75
1492.513914	776.0
1493.033683	772.5
1493.553398	767.25
1494.073057	771.75
1494.592662	773.75
1495.112212	766.0
1495.631708	776.75
1496.151148	766.0
1496.670534	774.25
1497.189865	771.5
1497.709141	772.5
1498.228362	768.0
1498.747529	778.5
1499.266641	767.75
1499.785698	779.25
1500.3047	777.25
1500.823648	768.75
1501.34254	772.0
1501.861379	774.25
1502.380162	771.0
1502.89889	772.0
1503.417564	771.0
1503.936183	766.25
1504.454748	768.5
1504.973257	771.75
1505.491712	763.75
1506.010112	767.75
1506.528458	770.75
1507.046748	767.75
1507.564984	766.0
1508.083166	766.25
1508.601292	769.5
1509.119364	764.75
1509.637381	766.0
1510.155344	776.0
1510.673252	775.25
1511.191105	770.75
1511.708903	771.5
1512.226647	762.25
1512.744336	770.5
1513.261971	767.5
1513.77955	768.0
1514.297076	772.5
1514.814546	773.25
1515.331962	766.5
1515.849323	766.5
1516.366629	763.0
1516.883881	766.75
1517.401078	768.75
1517.918221	769.25
1518.435309	767.75
1518.952342	772.0
1519.469321	766.5
1519.986245	767.0
1520.503114	767.25
1521.019929	778.5
1521.536689	770.25
1522.053395	770.25
1522.570046	769.5
1523.086642	764.75
1523.603184	770.0
1524.119671	769.0
1524.636103	768.0
1525.152481	770.75
1525.668805	775.0
1526.185073	772.0
1526.701288	783.0
1527.217447	767.25
1527.733552	772.5
1528.249603	758.0
1528.765599	769.0
1529.28154	773.0
1529.797427	769.0
1530.313259	771.75
1530.829037	766.25
1531.34476	766.5
1531.860429	765.25
1532.376043	760.5
1532.891602	767.25
1533.407107	761.5
1533.922558	769.25
1534.437954	764.0
1534.953295	771.0
1535.468582	765.75
1535.983815	767.0
1536.498993	766.0
1537.014116	766.0
1537.529185	772.25
1538.044199	767.75
1538.559159	764.5
1539.074064	768.75
1539.588915	767.75
1540.103712	765.5
1540.618454	763.25
1541.133141	766.0
1541.647774	768.25
1542.162353	770.75
1542.676877	768.25
1543.191346	772.5
1543.705761	774.5
1544.220122	765.0
1544.734428	765.0
1545.24868	767.75
1545.762877	768.5
1546.27702	767.75
1546.791109	773.25
1547.305143	766.0
1547.819122	765.25
1548.333047	762.75
1548.846918	759.75
1549.360734	762.5
1549.874496	766.5
1550.388204	770.0
1550.901857	773.25
1551.415455	768.75
1551.929	762.0
1552.442489	761.0
1552.955925	764.5
1553.469306	775.0
1553.982632	772.0
1554.495905	767.75
1555.009123	768.25
1555.522286	761.75
1556.035395	776.5
1556.54845	772.75
1557.06145	767.25
1557.574396	768.5
1558.087288	764.25
1558.600125	764.25
1559.112908	768.0
1559.625637	764.75
1560.138311	761.75
1560.650931	767.5
1561.163497	766.25
1561.676008	774.25
1562.188465	770.75
1562.700867	766.0
1563.213216	777.5
1563.725509	767.75
1564.237749	764.0
1564.749934	774.5
1565.262065	762.0
1565.774142	768.5
1566.286164	771.5
1566.798132	767.25
1567.310046	769.75
1567.821906	767.75
1568.333711	773.25
1568.845462	764.0
1569.357158	767.0
1569.868801	765.75
1570.380389	768.25
1570.891922	769.5
1571.403402	763.75
1571.914827	762.5
1572.426198	765.0
1572.937515	770.5
1573.448777	758.5
1573.959985	764.5
1574.471139	767.25
1574.982239	764.5
1575.493285	764.5
1576.004276	765.5
1576.515213	765.75
1577.026096	767.0
1577.536924	766.25
1578.047698	767.75
1578.558419	763.0
1579.069084	762.75
1579.579696	759.75
1580.090254	760.0
1580.600757	768.0
1581.111206	766.25
1581.621601	765.25
1582.131941	767.75
1582.642228	760.75
1583.15246	768.25
1583.662638	759.0
1584.172762	768.5
1584.682832	767.75
1585.192847	761.25
1585.702809	769.25
1586.212716	767.5
1586.722569	766.25
1587.232368	758.25
1587.742113	768.25
1588.251803	763.75
1588.76144	768.0
1589.271022	757.25
1589.78055	762.0
1590.290024	762.0
1590.799444	759.0
1591.30881	764.75
1591.818121	767.25
1592.327379	770.0
