1042.414189	736.25
1042.980685	735.75
1043.547124	733.75
1044.113505	727.0
1044.679828	722.25
1045.246093	720.0
1045.8123	724.75
1046.378449	714.25
1046.94454	710.5
1047.510573	707.0
1048.076548	710.0
1048.642465	705.0
1049.208325	705.0
1049.774126	702.0
1050.339869	701.25
1050.905555	699.25
1051.471183	694.0
1052.036752	695.75
1052.602264	694.0
1053.167718	695.5
1053.733114	691.75
1054.298452	693.5
1054.863733	690.75
1055.428955	689.75
1055.994119	686.75
1056.559226	691.75
1057.124275	693.25
1057.689266	690.0
1058.254199	683.5
1058.819074	689.75
1059.383891	689.0
1059.94865	687.5
1060.513352	682.75
1061.077996	685.75
1061.642582	683.0
1062.20711	685.5
1062.77158	683.0
1063.335992	683.25
1063.900347	682.5
1064.464643	682.5
1065.028882	682.0
1065.593063	682.5
1066.157187	682.25
1066.721252	686.5
1067.28526	679.25
1067.84921	680.75
1068.413102	683.5
1068.976936	681.5
1069.540713	680.5
1070.104431	688.5
1070.668092	683.5
1071.231696	679.75
1071.795241	678.5
1072.358729	675.5
1072.922159	678.75
1073.485531	678.5
1074.048845	678.75
1074.612102	683.0
1075.175301	682.5
1075.738442	681.75
1076.301525	678.5
1076.864551	680.0
1077.427519	679.25
1077.990429	679.5
1078.553281	676.75
1079.116076	679.25
1079.678813	678.25
1080.241492	679.0
1080.804114	680.25
1081.366678	679.5
1081.929184	678.75
1082.491633	678.0
1083.054024	681.5
1083.616357	679.5
1084.178632	682.25
1084.74085	677.25
1085.30301	677.75
1085.865113	676.0
1086.427158	681.25
1086.989145	677.25
1087.551074	678.5
1088.112946	680.5
1088.67476	679.5
1089.236517	675.5
1089.798216	679.0
1090.359857	677.0
1090.92144	679.25
1091.482966	674.75
1092.044435	678.75
1092.605845	680.5
1093.167199	679.0
1093.728494	677.0
1094.289732	674.5
1094.850912	680.75
1095.412035	686.5
1095.9731	679.0
1096.534107	680.0
1097.095057	685.0
1097.65595	678.0
1098.216784	677.5
1098.777561	678.25
1099.338281	676.0
1099.898943	677.75
1100.459547	674.5
1101.020094	676.75
1101.580584	675.5
1102.141015	678.25
1102.701389	678.5
1103.261706	682.25
1103.821965	679.0
1104.382167	674.25
1104.942311	679.25
1105.502397	677.25
1106.062426	677.75
1106.622398	678.5
1107.182312	681.5
1107.742168	673.75
1108.301967	678.25
1108.861708	680.25
1109.421392	680.25
1109.981019	680.5
1110.540587	679.75
1111.100099	679.25
1111.659553	676.0
1112.218949	677.5
1112.778288	679.5
1113.33757	677.0
1113.896794	678.0
1114.45596	679.25
1115.015069	675.75
1115.574121	679.75
1116.133115	681.25
1116.692052	680.75
1117.250931	681.75
1117.809753	677.25
1118.368517	679.75
1118.927224	678.75
1119.485873	678.25
1120.044465	678.75
1120.603	682.75
1121.161477	677.0
1121.719897	678.75
1122.278259	677.0
1122.836564	676.5
1123.394812	679.25
1123.953002	681.5
1124.511135	675.0
1125.06921	678.5
1125.627228	681.25
1126.185189	680.25
1126.743092	680.25
1127.300938	684.5
1127.858726	686.75
1128.416457	688.25
1128.974131	688.25
1129.531748	687.25
1130.089307	690.25
1130.646808	685.5
1131.204252	686.25
1131.761639	684.5
1132.318969	682.5
1132.876241	678.0
1133.433456	680.75
1133.990614	678.5
1134.547714	676.0
1135.104757	677.0
1135.661743	677.5
1136.218671	677.25
1136.775542	679.75
1137.332356	680.75
1137.889112	679.0
1138.445811	679.0
1139.002453	675.5
1139.559037	678.25
1140.115565	681.5
1140.672035	681.0
1141.228447	679.25
1141.784803	677.75
1142.341101	676.25
1142.897342	680.0
1143.453525	680.25
1144.009651	681.5
1144.565721	679.5
1145.121732	677.0
1145.677687	676.75
1146.233584	675.75
1146.789424	681.0
1147.345207	688.5
1147.900933	684.75
1148.456601	682.25
1149.012212	682.25
1149.567766	688.5
1150.123263	720.75
1150.678702	757.75
1151.234085	720.25
1151.78941	691.5
1152.344678	680.25
1152.899888	683.75
1153.455042	683.75
1154.010138	681.0
1154.565177	677.0
1155.120159	678.5
1155.675084	680.25
1156.229951	676.75
1156.784762	680.75
1157.339515	676.0
1157.894211	680.25
1158.44885	679.25
1159.003432	677.25
1159.557956	679.25
1160.112424	681.0
1160.666834	678.0
1161.221187	679.75
1161.775483	676.25
1162.329722	681.0
1162.883904	679.25
1163.438029	677.25
1163.992096	678.25
1164.546107	675.75
1165.10006	678.5
1165.653956	680.0
1166.207795	677.0
1166.761577	675.5
1167.315302	675.75
1167.86897	677.25
1168.422581	676.25
1168.976134	677.5
1169.529631	676.25
1170.08307	676.25
1170.636453	674.75
1171.189778	678.25
1171.743046	674.0
1172.296257	677.5
1172.849412	676.75
1173.402509	675.75
1173.955549	672.0
1174.508532	675.75
1175.061458	672.75
1175.614327	675.25
1176.167138	677.5
1176.719893	677.25
1177.272591	675.5
1177.825232	675.75
1178.377816	677.5
1178.930342	676.0
1179.482812	676.75
1180.035225	677.5
1180.587581	679.0
1181.139879	673.75
1181.692121	679.5
1182.244306	676.0
1182.796434	677.0
1183.348504	675.5
1183.900518	675.5
1184.452475	675.0
1185.004375	675.0
1185.556218	671.25
1186.108004	674.0
1186.659733	673.25
1187.211405	674.75
1187.76302	674.25
1188.314578	676.5
1188.866079	676.0
1189.417523	674.75
1189.96891	672.5
1190.520241	673.25
1191.071514	675.25
1191.622731	671.25
1192.17389	674.0
1192.724993	674.25
1193.276039	695.0
1193.827027	672.25
1194.377959	672.25
1194.928834	673.75
1195.479653	676.75
1196.030414	672.5
1196.581118	679.25
1197.131766	673.5
1197.682356	677.25
1198.23289	676.5
1198.783367	674.75
1199.333786	679.0
1199.88415	673.0
1200.434456	675.0
1200.984705	677.5
1201.534898	674.0
1202.085033	673.75
1202.635112	673.0
1203.185134	674.25
1203.735099	673.5
1204.285007	678.0
1204.834859	676.25
1205.384653	676.5
1205.934391	675.5
1206.484072	676.75
1207.033696	682.75
1207.583263	677.75
1208.132774	676.75
1208.682228	676.75
1209.231624	676.25
1209.780965	676.25
1210.330248	678.5
1210.879474	680.0
1211.428644	676.75
1211.977757	676.5
1212.526813	679.5
1213.075813	680.5
1213.624755	680.5
1214.173641	676.25
1214.72247	676.75
1215.271242	679.25
1215.819958	677.25
1216.368617	673.5
1216.917219	676.25
1217.465764	676.5
1218.014253	675.5
1218.562685	679.25
1219.11106	679.25
1219.659378	679.25
1220.20764	677.25
1220.755845	678.25
1221.303993	677.0
1221.852085	676.25
1222.400119	676.0
1222.948097	672.75
1223.496019	678.0
1224.043883	673.75
1224.591691	677.25
1225.139443	671.5
1225.687137	676.5
1226.234775	673.0
1226.782357	678.0
1227.329881	673.0
1227.877349	675.75
1228.42476	676.25
1228.972115	677.25
1229.519413	675.75
1230.066654	675.75
1230.613839	678.5
1231.160967	675.0
1231.708038	676.75
1232.255053	675.75
1232.802011	675.75
1233.348912	677.5
1233.895757	672.25
1234.442545	675.25
1234.989277	674.5
1235.535951	676.0
1236.08257	675.75
1236.629131	680.25
1237.175636	678.25
1237.722085	674.5
1238.268477	679.25
1238.814812	674.75
1239.361091	678.75
1239.907313	675.5
1240.453478	678.0
1240.999587	674.5
1241.54564	677.25
1242.091636	675.25
1242.637575	675.75
1243.183457	679.0
1243.729284	676.0
1244.275053	678.75
1244.820766	679.25
1245.366423	679.25
1245.912022	680.25
1246.457566	676.5
1247.003053	680.25
1247.548483	678.0
1248.093857	681.25
1248.639174	676.5
1249.184435	679.75
1249.729639	677.0
1250.274787	679.25
1250.819878	680.75
1251.364912	678.25
1251.909891	678.0
1252.454812	678.0
1252.999677	678.0
1253.544486	678.25
1254.089238	675.75
1254.633934	679.0
1255.178573	678.25
1255.723156	674.25
1256.267682	679.25
1256.812152	679.5
1257.356565	678.25
1257.900922	681.75
1258.445223	679.25
1258.989467	685.75
1259.533654	684.25
1260.077785	686.0
1260.62186	684.0
1261.165878	685.5
1261.70984	688.25
1262.253745	693.5
1262.797594	693.5
1263.341386	701.5
1263.885123	708.0
1264.428802	709.25
1264.972425	712.75
1265.515992	707.0
1266.059503	699.5
1266.602957	687.5
1267.146354	686.0
1267.689696	686.75
1268.23298	684.0
1268.776209	681.75
1269.319381	682.0
1269.862497	681.5
1270.405556	678.0
1270.948559	682.25
1271.491506	683.0
1272.034396	679.75
1272.57723	684.0
1273.120007	680.0
1273.662728	678.25
1274.205393	680.75
1274.748002	675.5
1275.290554	685.25
1275.83305	681.75
1276.375489	680.0
1276.917872	684.5
1277.460199	681.75
1278.00247	679.0
1278.544684	685.5
1279.086842	688.25
1279.628943	688.0
1280.170989	691.25
1280.712978	695.25
1281.25491	708.25
1281.796787	723.5
1282.338607	761.25
1282.880371	838.75
1283.422078	959.25
1283.963729	1105.75
1284.505324	1198.0
1285.046863	1162.0
1285.588345	1007.0
1286.129772	836.75
1286.671142	751.5
1287.212455	720.0
1287.753713	700.5
1288.294914	694.0
1288.836059	695.25
1289.377147	685.25
1289.91818	689.0
1290.459156	686.25
1291.000076	685.25
1291.54094	682.5
1292.081747	680.5
1292.622499	680.0
1293.163194	680.5
1293.703833	675.5
1294.244415	679.75
1294.784942	677.75
1295.325412	680.0
1295.865826	677.25
1296.406184	675.5
1296.946486	679.25
1297.486731	679.0
1298.026921	677.0
1298.567054	680.0
1299.107131	678.5
1299.647152	683.0
1300.187116	678.25
1300.727025	681.25
1301.266877	678.5
1301.806673	677.5
1302.346413	680.75
1302.886097	678.75
1303.425725	673.75
1303.965297	680.75
1304.504812	676.0
1305.044272	673.25
1305.583675	675.5
1306.123022	673.0
1306.662313	675.5
1307.201548	674.5
1307.740727	680.25
1308.279849	677.0
1308.818916	676.0
1309.357926	677.5
1309.896881	674.25
1310.435779	677.25
1310.974621	675.25
1311.513407	678.25
1312.052137	676.5
1312.590811	675.75
1313.129429	679.0
1313.667991	675.25
1314.206497	672.25
1314.744946	675.75
1315.28334	678.5
1315.821678	679.25
1316.359959	676.5
1316.898184	679.5
1317.436354	674.0
1317.974467	674.0
1318.512525	674.25
1319.050526	677.0
1319.588471	673.5
1320.12636	677.75
1320.664194	676.75
1321.201971	676.75
1321.739692	676.0
1322.277357	677.25
1322.814967	677.5
1323.35252	674.75
1323.890017	683.5
1324.427458	675.0
1324.964843	675.25
1325.502173	676.75
1326.039446	678.25
1326.576663	676.0
1327.113824	677.25
1327.65093	676.0
1328.187979	677.0
1328.724972	676.25
1329.26191	677.25
1329.798791	677.75
1330.335617	674.5
1330.872386	679.0
1331.4091	676.0
1331.945758	676.0
1332.48236	679.5
1333.018905	675.5
1333.555395	676.5
1334.091829	676.75
1334.628207	677.75
1335.164529	676.5
1335.700796	677.25
1336.237006	676.0
1336.77316	674.25
1337.309259	676.25
1337.845301	675.25
1338.381288	680.25
1338.917219	673.5
1339.453094	677.75
1339.988913	677.0
1340.524676	677.5
1341.060383	673.75
1341.596034	679.25
1342.13163	679.0
1342.66717	674.0
1343.202653	675.75
1343.738081	676.5
1344.273453	674.25
1344.80877	676.75
1345.34403	677.0
1345.879235	675.75
1346.414383	678.5
1346.949476	676.5
1347.484513	679.75
1348.019494	679.25
1348.55442	677.25
1349.089289	679.75
1349.624103	675.0
1350.158861	676.75
1350.693563	681.25
1351.228209	672.75
1351.7628	679.0
1352.297334	677.0
1352.831813	676.5
1353.366236	676.75
1353.900604	675.25
1354.434915	678.0
1354.969171	676.75
1355.503371	677.75
1356.037515	675.25
1356.571604	678.25
1357.105636	676.75
1357.639613	678.5
1358.173535	679.0
1358.7074	675.75
1359.24121	677.0
1359.774964	679.5
1360.308662	680.25
1360.842304	678.75
1361.375891	677.5
1361.909422	676.5
1362.442897	680.25
1362.976317	679.0
1363.50968	680.25
1364.042989	677.5
1364.576241	681.5
1365.109438	683.75
1365.642579	681.5
1366.175664	682.75
1366.708693	681.0
1367.241667	679.0
1367.774585	681.0
1368.307448	678.75
1368.840255	680.75
1369.373006	684.25
1369.905701	694.25
1370.438341	700.75
1370.970925	694.0
1371.503454	684.5
1372.035926	680.5
1372.568344	684.75
1373.100705	684.0
1373.633011	681.5
1374.165261	683.75
1374.697456	683.25
1375.229595	682.5
1375.761678	684.25
1376.293705	681.75
1376.825677	682.25
1377.357594	678.25
1377.889455	683.0
1378.42126	682.75
1378.953009	684.75
1379.484703	682.5
1380.016342	688.0
1380.547924	686.75
1381.079452	687.5
1381.610923	688.0
1382.142339	691.0
1382.673699	688.25
1383.205004	690.0
1383.736253	694.25
1384.267447	696.75
1384.798585	709.5
1385.329668	718.75
1385.860695	744.75
1386.391666	787.5
1386.922582	903.75
1387.453442	1130.5
1387.984247	1588.25
1388.514996	1843.75
1389.04569	1486.5
1389.576328	997.75
1390.10691	813.0
1390.637437	744.25
1391.167909	717.25
1391.698325	705.75
1392.228685	698.25
1392.75899	694.0
1393.28924	693.25
1393.819434	690.75
1394.349572	687.25
1394.879655	685.25
1395.409683	681.75
1395.939655	682.75
1396.469571	684.75
1396.999432	682.0
1397.529237	681.75
1398.058987	680.75
1398.588682	681.0
1399.118321	682.75
1399.647905	680.5
1400.177433	683.5
1400.706906	680.25
1401.236323	678.75
1401.765685	677.75
1402.294991	678.5
1402.824242	679.75
1403.353437	679.75
1403.882577	681.0
1404.411662	683.0
1404.940691	685.75
1405.469665	687.0
1405.998583	687.0
1406.527446	685.5
1407.056253	695.25
1407.585005	695.75
1408.113702	700.25
1408.642343	707.25
1409.170929	725.25
1409.69946	744.0
1410.227935	741.5
1410.756354	722.25
1411.284719	707.25
1411.813028	692.5
1412.341281	690.0
1412.869479	683.0
1413.397622	677.75
1413.92571	677.75
1414.453742	680.0
1414.981718	677.25
1415.50964	689.25
1416.037506	677.75
1416.565316	674.5
1417.093072	680.5
1417.620772	679.25
1418.148416	674.25
1418.676005	676.25
1419.203539	674.0
1419.731018	674.5
1420.258441	674.25
1420.785809	674.5
1421.313122	678.0
1421.840379	672.75
1422.367582	675.75
1422.894728	674.75
1423.42182	674.5
1423.948856	677.5
1424.475837	674.0
1425.002762	674.5
1425.529633	673.25
1426.056448	679.0
1426.583207	677.75
1427.109912	674.0
1427.636561	678.5
1428.163155	672.75
1428.689694	672.75
1429.216177	673.25
1429.742605	670.0
1430.268978	673.5
1430.795296	675.75
1431.321558	672.75
1431.847765	673.5
1432.373917	671.0
1432.900014	674.25
1433.426056	669.25
1433.952042	671.75
1434.477973	673.5
1435.003849	669.25
1435.529669	673.75
1436.055435	673.0
1436.581145	673.75
1437.1068	671.25
1437.632399	671.25
1438.157944	674.25
1438.683433	671.25
1439.208868	671.0
1439.734247	673.75
1440.25957	674.0
1440.784839	674.25
1441.310053	670.75
1441.835211	673.75
1442.360314	676.75
1442.885362	671.0
1443.410355	675.25
1443.935292	672.5
1444.460175	671.25
1444.985002	670.0
1445.509774	674.75
1446.034491	676.75
1446.559153	672.0
1447.08376	673.0
1447.608312	672.75
1448.132808	671.0
1448.65725	671.25
1449.181636	671.75
1449.705967	672.0
1450.230243	671.25
1450.754464	671.25
1451.27863	670.5
1451.802741	670.75
1452.326797	671.25
1452.850797	670.75
1453.374743	672.25
1453.898633	670.5
1454.422468	669.5
1454.946249	671.25
1455.469974	671.75
1455.993644	670.75
1456.517259	670.25
1457.040819	670.5
1457.564324	670.5
1458.087773	672.5
1458.611168	672.5
1459.134508	669.5
1459.657793	670.25
1460.181022	670.25
1460.704197	670.25
1461.227316	669.25
1461.750381	671.75
1462.27339	672.5
1462.796345	679.25
1464.364878	673.25
1464.887613	671.25
1465.410292	670.5
1465.932916	669.25
1466.455486	671.75
1466.978	670.0
1467.50046	667.5
1468.022864	670.0
1468.545214	671.75
1469.067508	671.75
1469.589748	673.75
1470.111932	671.75
1470.634062	670.5
1471.156136	671.75
1471.678156	673.75
1472.20012	670.0
1472.72203	671.5
1473.243885	671.5
1473.765685	669.0
1474.28743	670.5
1474.80912	670.75
1475.330755	672.25
1475.852335	671.25
1476.37386	670.75
1476.89533	669.0
1477.416745	671.0
1477.938106	674.0
1478.459411	669.5
1478.980662	668.75
1479.501857	671.0
1480.022998	669.75
1480.544084	672.5
1481.065115	673.0
1481.586091	669.25
1482.107012	671.5
1482.627878	671.0
1483.14869	667.75
1483.669446	668.25
1484.190148	670.75
1484.710794	672.25
1485.231386	669.5
1485.751923	666.5
1486.272406	666.75
1486.792833	670.25
1487.313205	669.25
1487.833523	670.75
1488.353786	672.0
1488.873994	669.75
1489.394147	675.5
1489.914245	669.25
1490.434288	673.0
1490.954277	670.25
1491.474211	670.75
1491.99409	671.0
1492.513914	670.0
1493.033683	669.5
1493.553398	668.0
1494.073057	672.5
1494.592662	667.75
1495.112212	667.25
1495.631708	669.0
1496.151148	670.5
1496.670534	670.5
1497.189865	669.0
1497.709141	670.5
1498.228362	672.0
1498.747529	670.0
1499.266641	672.5
1499.785698	677.5
1500.3047	671.0
1500.823648	672.75
1501.34254	669.75
1501.861379	671.5
1502.380162	674.0
1502.89889	672.75
1503.417564	673.0
1503.936183	670.25
1504.454748	669.5
1504.973257	670.75
1505.491712	668.25
1506.010112	669.75
1506.528458	670.25
1507.046748	669.0
1507.564984	667.75
1508.083166	672.0
1508.601292	668.5
1509.119364	674.0
1509.637381	670.25
1510.155344	672.0
1510.673252	679.5
1511.191105	669.5
1511.708903	665.25
1512.226647	667.5
1512.744336	670.25
1513.261971	672.5
1513.77955	669.25
1514.297076	671.0
1514.814546	669.25
1515.331962	672.25
1515.849323	670.25
1516.366629	670.0
1516.883881	672.25
1517.401078	665.75
1517.918221	668.5
1518.435309	669.75
1518.952342	669.25
1519.469321	671.0
1519.986245	669.5
1520.503114	670.25
1521.019929	670.5
1521.536689	672.0
1522.053395	669.0
1522.570046	672.0
1523.086642	673.0
1523.603184	672.0
1524.119671	672.0
1524.636103	672.25
1525.152481	671.75
1525.668805	674.25
1526.185073	696.25
1526.701288	700.0
1527.217447	674.0
1527.733552	668.0
1528.249603	671.25
1528.765599	671.0
1529.28154	672.75
1529.797427	672.25
1530.313259	671.75
1530.829037	670.25
1531.34476	671.5
1531.860429	667.75
1532.376043	669.75
1532.891602	669.0
1533.407107	669.25
1533.922558	673.0
1534.437954	672.5
1534.953295	669.75
1535.468582	667.5
1535.983815	669.75
1536.498993	671.0
1537.014116	669.25
1537.529185	669.0
1538.044199	672.25
1538.559159	667.5
1539.074064	671.25
1539.588915	671.0
1540.103712	671.5
1540.618454	669.0
1541.133141	671.5
1541.647774	671.25
1542.162353	668.0
1542.676877	670.0
1543.191346	673.25
1543.705761	669.75
1544.220122	670.5
1544.734428	670.75
1545.24868	670.75
1545.762877	672.75
1546.27702	671.25
1546.791109	673.75
1547.305143	675.0
1547.819122	671.25
1548.333047	669.75
1548.846918	671.5
1549.360734	670.25
1549.874496	670.75
1550.388204	670.0
1550.901857	671.0
1551.415455	672.5
1551.929	673.75
1552.442489	673.75
1552.955925	670.75
1553.469306	673.5
1553.982632	671.75
1554.495905	672.25
1555.009123	671.0
1555.522286	671.25
1556.035395	672.25
1556.54845	670.0
1557.06145	674.5
1557.574396	672.25
1558.087288	673.25
1558.600125	672.25
1559.112908	672.5
1559.625637	671.25
1560.138311	671.25
1560.650931	670.75
1561.163497	675.5
1561.676008	673.5
1562.188465	673.5
1562.700867	673.75
1563.213216	673.0
1563.725509	673.0
1564.237749	672.0
1564.749934	676.25
1565.262065	676.75
1565.774142	676.0
1566.286164	675.0
1566.798132	674.0
1567.310046	676.5
1567.821906	677.75
1568.333711	674.75
1568.845462	672.75
1569.357158	675.75
1569.868801	675.25
1570.380389	672.75
1570.891922	674.75
1571.403402	674.0
1571.914827	669.5
1572.426198	671.75
1572.937515	672.75
1573.448777	674.0
1573.959985	669.0
1574.471139	667.5
1574.982239	669.0
1575.493285	674.25
1576.004276	669.75
1576.515213	672.75
1577.026096	671.25
1577.536924	672.0
1578.047698	670.75
1578.558419	671.0
1579.069084	672.5
1579.579696	669.5
1580.090254	671.0
1580.600757	668.5
1581.111206	672.5
1581.621601	671.75
1582.131941	673.0
1582.642228	672.5
1583.15246	668.25
1583.662638	671.5
1584.172762	670.5
1584.682832	669.5
1585.192847	670.25
1585.702809	672.25
1586.212716	670.5
1586.722569	671.5
1587.232368	670.5
1587.742113	671.75
1588.251803	672.5
1588.76144	669.25
1589.271022	669.5
1589.78055	669.5
1590.290024	671.5
1590.799444	672.0
1591.30881	671.75
1591.818121	670.25
1592.327379	669.25
