1042.414189	710.5
1042.980685	708.25
1043.547124	713.25
1044.113505	707.25
1044.679828	708.5
1045.246093	703.0
1045.8123	701.75
1046.378449	701.5
1046.94454	703.75
1047.510573	696.5
1048.076548	701.0
1048.642465	698.75
1049.208325	695.0
1049.774126	699.0
1050.339869	698.25
1050.905555	699.5
1051.471183	693.75
1052.036752	691.25
1052.602264	691.5
1053.167718	692.0
1053.733114	690.75
1054.298452	690.25
1054.863733	690.25
1055.428955	686.75
1055.994119	690.75
1056.559226	686.75
1057.124275	687.25
1057.689266	693.0
1058.254199	686.0
1058.819074	685.5
1059.383891	690.75
1059.94865	692.75
1060.513352	689.0
1061.077996	687.5
1061.642582	686.25
1062.20711	689.75
1062.77158	687.0
1063.335992	684.25
1063.900347	687.0
1064.464643	688.0
1065.028882	687.0
1065.593063	687.0
1066.157187	685.25
1066.721252	686.75
1067.28526	684.0
1067.84921	682.75
1068.413102	688.5
1068.976936	681.5
1069.540713	686.75
1070.104431	692.5
1070.668092	684.75
1071.231696	684.0
1071.795241	683.0
1072.358729	684.5
1072.922159	684.0
1073.485531	681.25
1074.048845	690.75
1074.612102	685.0
1075.175301	682.0
1075.738442	679.75
1076.301525	685.0
1076.864551	681.75
1077.427519	686.5
1077.990429	683.5
1078.553281	683.5
1079.116076	683.5
1079.678813	684.0
1080.241492	686.25
1080.804114	680.25
1081.366678	683.0
1081.929184	682.25
1082.491633	685.5
1083.054024	686.0
1083.616357	684.75
1084.178632	680.75
1084.74085	685.25
1085.30301	686.0
1085.865113	680.75
1086.427158	680.5
1086.989145	685.0
1087.551074	682.75
1088.112946	687.25
1088.67476	682.25
1089.236517	684.5
1089.798216	682.5
1090.359857	680.0
1090.92144	686.5
1091.482966	684.25
1092.044435	682.0
1092.605845	682.0
1093.167199	683.5
1093.728494	687.5
1094.289732	681.5
1094.850912	680.25
1095.412035	689.0
1095.9731	684.25
1096.534107	681.0
1097.095057	688.25
1097.65595	680.5
1098.216784	682.0
1098.777561	687.25
1099.338281	686.0
1099.898943	681.0
1100.459547	681.25
1101.020094	683.75
1101.580584	686.5
1102.141015	683.5
1102.701389	681.5
1103.261706	681.5
1103.821965	685.5
1104.382167	679.5
1104.942311	680.25
1105.502397	684.5
1106.062426	682.75
1106.622398	681.75
1107.182312	683.25
1107.742168	682.5
1108.301967	684.0
1108.861708	683.0
1109.421392	683.75
1109.981019	681.0
1110.540587	681.25
1111.100099	682.5
1111.659553	683.25
1112.218949	683.75
1112.778288	680.0
1113.33757	681.25
1113.896794	679.5
1114.45596	679.5
1115.015069	680.25
1115.574121	683.75
1116.133115	685.5
1116.692052	681.25
1117.250931	683.25
1117.809753	682.5
1118.368517	684.5
1118.927224	681.0
1119.485873	682.5
1120.044465	682.5
1120.603	679.25
1121.161477	681.75
1121.719897	680.75
1122.278259	681.75
1122.836564	680.0
1123.394812	681.0
1123.953002	681.5
1124.511135	678.25
1125.06921	683.75
1125.627228	676.5
1126.185189	682.75
1126.743092	684.25
1127.300938	684.75
1127.858726	681.25
1128.416457	683.75
1128.974131	682.0
1129.531748	682.0
1130.089307	684.0
1130.646808	680.25
1131.204252	683.0
1131.761639	680.75
1132.318969	682.5
1132.876241	683.0
1133.433456	679.25
1133.990614	682.5
1134.547714	685.25
1135.104757	678.75
1135.661743	678.25
1136.218671	684.0
1136.775542	680.0
1137.332356	682.5
1137.889112	679.75
1138.445811	684.5
1139.002453	681.5
1139.559037	682.0
1140.115565	682.25
1140.672035	685.75
1141.228447	680.5
1141.784803	682.75
1142.341101	683.75
1142.897342	681.25
1143.453525	680.25
1144.009651	684.25
1144.565721	685.5
1145.121732	680.25
1145.677687	682.0
1146.233584	682.75
1146.789424	685.0
1147.345207	679.25
1147.900933	681.75
1148.456601	680.5
1149.012212	683.5
1149.567766	683.0
1150.123263	680.25
1150.678702	676.75
1151.234085	678.75
1151.78941	683.75
1152.344678	683.5
1152.899888	684.75
1153.455042	683.5
1154.010138	683.75
1154.565177	683.0
1155.120159	681.0
1155.675084	679.0
1156.229951	684.5
1156.784762	681.25
1157.339515	681.0
1157.894211	680.25
1158.44885	681.75
1159.003432	681.5
1159.557956	681.0
1160.112424	685.5
1160.666834	685.0
1161.221187	683.25
1161.775483	682.75
1162.329722	684.5
1162.883904	683.25
1163.438029	680.75
1163.992096	685.25
1164.546107	680.0
1165.10006	682.75
1165.653956	680.25
1166.207795	685.5
1166.761577	683.75
1167.315302	683.5
1167.86897	683.75
1168.422581	677.5
1168.976134	680.25
1169.529631	677.25
1170.08307	684.25
1170.636453	681.5
1171.189778	683.0
1171.743046	679.0
1172.296257	682.75
1172.849412	678.25
1173.402509	681.25
1173.955549	680.0
1174.508532	683.5
1175.061458	682.0
1175.614327	680.0
1176.167138	678.25
1176.719893	680.25
1177.272591	683.75
1177.825232	679.75
1178.377816	681.0
1178.930342	682.0
1179.482812	682.5
1180.035225	679.75
1180.587581	685.0
1181.139879	682.25
1181.692121	682.5
1182.244306	678.75
1182.796434	679.0
1183.348504	679.75
1183.900518	681.25
1184.452475	680.0
1185.004375	680.75
1185.556218	680.75
1186.108004	682.25
1186.659733	679.5
1187.211405	681.0
1187.76302	681.75
1188.314578	682.0
1188.866079	683.0
1189.417523	682.25
1189.96891	678.0
1190.520241	683.75
1191.071514	680.25
1191.622731	681.25
1192.17389	684.0
1192.724993	682.75
1193.276039	701.5
1193.827027	682.0
1194.377959	681.5
1194.928834	682.25
1195.479653	680.5
1196.030414	677.25
1196.581118	682.25
1197.131766	679.25
1197.682356	682.0
1198.23289	677.5
1198.783367	681.25
1199.333786	682.25
1199.88415	680.0
1200.434456	680.0
1200.984705	681.25
1201.534898	685.0
1202.085033	677.75
1202.635112	681.25
1203.185134	680.25
1203.735099	681.5
1204.285007	679.0
1204.834859	680.5
1205.384653	681.5
1205.934391	684.0
1206.484072	679.5
1207.033696	677.75
1207.583263	680.25
1208.132774	682.75
1208.682228	683.0
1209.231624	680.75
1209.780965	680.5
1210.330248	680.25
1210.879474	680.75
1211.428644	679.0
1211.977757	684.75
1212.526813	682.25
1213.075813	686.25
1213.624755	676.25
1214.173641	680.75
1214.72247	683.0
1215.271242	680.0
1215.819958	685.5
1216.368617	682.25
1216.917219	683.25
1217.465764	680.0
1218.014253	681.75
1218.562685	684.5
1219.11106	679.5
1219.659378	683.5
1220.20764	685.0
1220.755845	681.5
1221.303993	676.75
1221.852085	682.5
1222.400119	683.5
1222.948097	682.25
1223.496019	681.75
1224.043883	683.25
1224.591691	681.5
1225.139443	680.5
1225.687137	683.0
1226.234775	681.5
1226.782357	681.75
1227.329881	681.5
1227.877349	681.0
1228.42476	682.25
1228.972115	684.5
1229.519413	686.0
1230.066654	679.5
1230.613839	677.25
1231.160967	680.0
1231.708038	685.75
1232.255053	682.5
1232.802011	679.0
1233.348912	681.25
1233.895757	680.0
1234.442545	684.75
1234.989277	679.75
1235.535951	681.75
1236.08257	679.0
1236.629131	683.0
1237.175636	680.75
1237.722085	681.5
1238.268477	681.75
1238.814812	683.0
1239.361091	679.25
1239.907313	680.25
1240.453478	684.75
1240.999587	678.5
1241.54564	681.0
1242.091636	680.75
1242.637575	682.5
1243.183457	686.0
1243.729284	679.0
1244.275053	679.25
1244.820766	684.5
1245.366423	680.0
1245.912022	679.75
1246.457566	679.75
1247.003053	678.0
1247.548483	682.5
1248.093857	681.25
1248.639174	678.25
1249.184435	681.75
1249.729639	682.5
1250.274787	678.25
1250.819878	685.0
1251.364912	678.25
1251.909891	683.5
1252.454812	679.75
1252.999677	681.25
1253.544486	679.5
1254.089238	681.25
1254.633934	678.75
1255.178573	683.0
1255.723156	681.25
1256.267682	682.0
1256.812152	682.0
1257.356565	679.25
1257.900922	681.25
1258.445223	678.0
1258.989467	682.5
1259.533654	682.5
1260.077785	692.75
1260.62186	682.0
1261.165878	680.5
1261.70984	681.75
1262.253745	682.0
1262.797594	680.75
1263.341386	679.75
1263.885123	681.75
1264.428802	685.0
1264.972425	688.0
1265.515992	696.75
1266.059503	700.75
1266.602957	689.25
1267.146354	682.0
1267.689696	679.0
1268.23298	685.5
1268.776209	682.75
1269.319381	678.0
1269.862497	682.75
1270.405556	681.25
1270.948559	680.75
1271.491506	683.75
1272.034396	679.0
1272.57723	679.75
1273.120007	680.0
1273.662728	682.25
1274.205393	681.5
1274.748002	678.75
1275.290554	684.25
1275.83305	683.0
1276.375489	680.25
1276.917872	681.25
1277.460199	681.5
1278.00247	682.5
1278.544684	681.5
1279.086842	680.0
1279.628943	682.5
1280.170989	681.5
1280.712978	678.75
1281.25491	679.25
1281.796787	682.5
1282.338607	684.5
1282.880371	682.75
1283.422078	686.0
1283.963729	685.0
1284.505324	695.5
1285.046863	711.75
1285.588345	790.75
1286.129772	922.5
1286.671142	834.5
1287.212455	717.5
1287.753713	691.0
1288.294914	685.0
1288.836059	682.75
1289.377147	679.0
1289.91818	683.75
1290.459156	683.5
1291.000076	681.25
1291.54094	684.75
1292.081747	679.75
1292.622499	677.0
1293.163194	681.25
1293.703833	679.5
1294.244415	677.25
1294.784942	679.25
1295.325412	682.25
1295.865826	681.0
1296.406184	680.25
1296.946486	682.25
1297.486731	676.25
1298.026921	680.75
1298.567054	681.0
1299.107131	683.75
1299.647152	680.0
1300.187116	677.75
1300.727025	681.75
1301.266877	678.75
1301.806673	679.5
1302.346413	683.5
1302.886097	680.0
1303.425725	679.25
1303.965297	680.25
1304.504812	679.5
1305.044272	681.75
1305.583675	679.75
1306.123022	681.75
1306.662313	678.75
1307.201548	682.25
1307.740727	680.5
1308.279849	681.5
1308.818916	676.75
1309.357926	681.75
1309.896881	681.75
1310.435779	680.5
1310.974621	678.0
1311.513407	679.25
1312.052137	678.75
1312.590811	679.5
1313.129429	677.75
1313.667991	676.5
1314.206497	679.0
1314.744946	675.75
1315.28334	685.0
1315.821678	681.25
1316.359959	681.0
1316.898184	681.75
1317.436354	676.75
1317.974467	678.5
1318.512525	681.75
1319.050526	681.0
1319.588471	677.25
1320.12636	682.5
1320.664194	679.5
1321.201971	677.75
1321.739692	681.75
1322.277357	679.0
1322.814967	682.25
1323.35252	679.5
1323.890017	686.25
1324.427458	680.5
1324.964843	679.0
1325.502173	680.25
1326.039446	679.75
1326.576663	683.0
1327.113824	681.25
1327.65093	678.25
1328.187979	675.75
1328.724972	680.5
1329.26191	681.5
1329.798791	684.0
1330.335617	680.0
1330.872386	677.0
1331.4091	677.5
1331.945758	679.25
1332.48236	682.25
1333.018905	679.25
1333.555395	681.25
1334.091829	678.5
1334.628207	678.25
1335.164529	678.75
1335.700796	676.25
1336.237006	680.5
1336.77316	677.5
1337.309259	679.0
1337.845301	679.25
1338.381288	683.0
1338.917219	682.75
1339.453094	681.75
1339.988913	680.5
1340.524676	679.5
1341.060383	680.25
1341.596034	677.75
1342.13163	678.25
1342.66717	677.25
1343.202653	682.5
1343.738081	678.5
1344.273453	678.5
1344.80877	678.5
1345.34403	682.5
1345.879235	681.5
1346.414383	680.5
1346.949476	681.0
1347.484513	677.25
1348.019494	677.75
1348.55442	680.0
1349.089289	677.5
1349.624103	680.75
1350.158861	679.25
1350.693563	677.5
1351.228209	683.25
1351.7628	681.5
1352.297334	677.0
1352.831813	679.25
1353.366236	681.0
1353.900604	682.75
1354.434915	679.25
1354.969171	681.25
1355.503371	682.5
1356.037515	679.0
1356.571604	679.75
1357.105636	679.25
1357.639613	684.5
1358.173535	681.5
1358.7074	678.5
1359.24121	684.25
1359.774964	677.75
1360.308662	678.5
1360.842304	682.0
1361.375891	677.75
1361.909422	685.0
1362.442897	680.25
1362.976317	681.0
1363.50968	680.5
1364.042989	678.75
1364.576241	679.5
1365.109438	679.0
1365.642579	679.25
1366.175664	681.0
1366.708693	680.25
1367.241667	679.25
1367.774585	681.25
1368.307448	684.0
1368.840255	684.5
1369.373006	682.75
1369.905701	681.75
1370.438341	683.5
1370.970925	684.5
1371.503454	686.75
1372.035926	676.5
1372.568344	681.25
1373.100705	676.75
1373.633011	678.75
1374.165261	679.25
1374.697456	679.25
1375.229595	678.5
1375.761678	682.5
1376.293705	678.5
1376.825677	680.5
1377.357594	678.25
1377.889455	680.5
1378.42126	678.0
1378.953009	683.0
1379.484703	682.5
1380.016342	680.0
1380.547924	679.75
1381.079452	677.75
1381.610923	686.25
1382.142339	682.25
1382.673699	684.75
1383.205004	680.75
1383.736253	681.75
1384.267447	683.5
1384.798585	681.0
1385.329668	686.75
1385.860695	685.0
1386.391666	684.5
1386.922582	684.75
1387.453442	686.25
1387.984247	698.5
1388.514996	748.5
1389.04569	972.5
1389.576328	1087.5
1390.10691	792.5
1390.637437	703.5
1391.167909	691.0
1391.698325	687.25
1392.228685	684.75
1392.75899	684.75
1393.28924	683.25
1393.819434	683.25
1394.349572	684.25
1394.879655	684.5
1395.409683	680.5
1395.939655	680.25
1396.469571	681.5
1396.999432	683.75
1397.529237	676.5
1398.058987	680.25
1398.588682	684.0
1399.118321	680.75
1399.647905	684.0
1400.177433	680.75
1400.706906	681.0
1401.236323	678.75
1401.765685	681.0
1402.294991	681.5
1402.824242	679.75
1403.353437	677.5
1403.882577	683.0
1404.411662	682.25
1404.940691	681.75
1405.469665	681.0
1405.998583	680.0
1406.527446	680.75
1407.056253	683.25
1407.585005	680.75
1408.113702	682.75
1408.642343	682.5
1409.170929	686.25
1409.69946	686.0
1410.227935	701.5
1410.756354	716.5
1411.284719	697.25
1411.813028	685.75
1412.341281	685.0
1412.869479	680.25
1413.397622	682.0
1413.92571	682.25
1414.453742	679.25
1414.981718	679.25
1415.50964	692.5
1416.037506	681.0
1416.565316	676.25
1417.093072	681.5
1417.620772	683.5
1418.148416	681.25
1418.676005	677.75
1419.203539	683.25
1419.731018	677.75
1420.258441	679.75
1420.785809	679.25
1421.313122	676.75
1421.840379	679.0
1422.367582	676.5
1422.894728	679.0
1423.42182	681.5
1423.948856	681.0
1424.475837	681.5
1425.002762	679.75
1425.529633	679.75
1426.056448	679.0
1426.583207	682.5
1427.109912	683.25
1427.636561	678.75
1428.163155	681.75
1428.689694	683.0
1429.216177	680.25
1429.742605	684.0
1430.268978	682.75
1430.795296	681.0
1431.321558	680.25
1431.847765	680.75
1432.373917	680.5
1432.900014	681.0
1433.426056	680.25
1433.952042	678.0
1434.477973	678.5
1435.003849	681.5
1435.529669	677.25
1436.055435	682.75
1436.581145	684.5
1437.1068	679.75
1437.632399	680.5
1438.157944	678.25
1438.683433	679.25
1439.208868	680.25
1439.734247	681.75
1440.25957	680.75
1440.784839	683.75
1441.310053	683.25
1441.835211	680.25
1442.360314	679.25
1442.885362	678.0
1443.410355	683.0
1443.935292	678.5
1444.460175	679.25
1444.985002	678.5
1445.509774	680.25
1446.034491	679.75
1446.559153	678.5
1447.08376	683.0
1447.608312	679.25
1448.132808	678.25
1448.65725	679.5
1449.181636	681.0
1449.705967	681.25
1450.230243	681.5
1450.754464	680.25
1451.27863	681.75
1451.802741	679.75
1452.326797	681.0
1452.850797	681.5
1453.374743	681.5
1453.898633	681.25
1454.422468	683.25
1454.946249	680.25
1455.469974	679.5
1455.993644	681.0
1456.517259	679.5
1457.040819	681.0
1457.564324	678.75
1458.087773	679.25
1458.611168	678.25
1459.134508	680.0
1459.657793	678.0
1460.181022	679.75
1460.704197	681.75
1461.227316	681.0
1461.750381	682.25
1462.27339	683.75
1462.796345	690.75
1464.364878	686.75
1464.887613	675.25
1465.410292	679.75
1465.932916	681.0
1466.455486	682.25
1466.978	677.25
1467.50046	677.25
1468.022864	677.0
1468.545214	680.5
1469.067508	679.0
1469.589748	679.75
1470.111932	680.0
1470.634062	677.75
1471.156136	678.75
1471.678156	679.0
1472.20012	676.0
1472.72203	679.75
1473.243885	677.75
1473.765685	681.75
1474.28743	680.0
1474.80912	679.5
1475.330755	676.5
1475.852335	677.75
1476.37386	680.25
1476.89533	680.25
1477.416745	678.75
1477.938106	680.0
1478.459411	678.0
1478.980662	676.5
1479.501857	677.5
1480.022998	677.25
1480.544084	677.5
1481.065115	678.0
1481.586091	677.75
1482.107012	677.0
1482.627878	680.75
1483.14869	677.75
1483.669446	677.25
1484.190148	679.75
1484.710794	677.5
1485.231386	681.0
1485.751923	679.0
1486.272406	678.75
1486.792833	676.5
1487.313205	680.75
1487.833523	676.0
1488.353786	678.0
1488.873994	682.0
1489.394147	678.75
1489.914245	677.0
1490.434288	678.5
1490.954277	678.25
1491.474211	681.25
1491.99409	677.5
1492.513914	675.75
1493.033683	679.0
1493.553398	680.25
1494.073057	677.5
1494.592662	678.0
1495.112212	678.25
1495.631708	682.75
1496.151148	677.25
1496.670534	677.5
1497.189865	677.75
1497.709141	678.75
1498.228362	678.0
1498.747529	679.0
1499.266641	678.75
1499.785698	687.75
1500.3047	679.0
1500.823648	676.75
1501.34254	684.25
1501.861379	677.75
1502.380162	679.25
1502.89889	677.75
1503.417564	683.75
1503.936183	679.75
1504.454748	675.0
1504.973257	675.75
1505.491712	678.5
1506.010112	681.75
1506.528458	675.5
1507.046748	676.25
1507.564984	678.5
1508.083166	682.25
1508.601292	677.75
1509.119364	680.5
1509.637381	677.25
1510.155344	677.5
1510.673252	687.5
1511.191105	678.25
1511.708903	682.5
1512.226647	675.0
1512.744336	682.0
1513.261971	676.25
1513.77955	680.75
1514.297076	680.25
1514.814546	679.0
1515.331962	681.25
1515.849323	677.25
1516.366629	681.5
1516.883881	678.5
1517.401078	675.0
1517.918221	678.75
1518.435309	679.75
1518.952342	681.0
1519.469321	679.5
1519.986245	680.5
1520.503114	677.5
1521.019929	677.5
1521.536689	676.75
1522.053395	679.75
1522.570046	679.5
1523.086642	680.5
1523.603184	681.5
1524.119671	679.0
1524.636103	679.25
1525.152481	675.5
1525.668805	683.75
1526.185073	710.75
1526.701288	715.75
1527.217447	688.5
1527.733552	681.0
1528.249603	680.75
1528.765599	678.5
1529.28154	679.0
1529.797427	682.5
1530.313259	677.25
1530.829037	675.75
1531.34476	680.0
1531.860429	678.0
1532.376043	679.0
1532.891602	679.25
1533.407107	675.75
1533.922558	677.0
1534.437954	679.5
1534.953295	679.25
1535.468582	680.5
1535.983815	679.0
1536.498993	679.25
1537.014116	676.75
1537.529185	678.25
1538.044199	677.25
1538.559159	681.5
1539.074064	680.0
1539.588915	680.0
1540.103712	683.5
1540.618454	683.5
1541.133141	679.0
1541.647774	676.75
1542.162353	679.75
1542.676877	680.25
1543.191346	677.5
1543.705761	676.75
1544.220122	681.75
1544.734428	680.0
1545.24868	679.75
1545.762877	682.75
1546.27702	679.25
1546.791109	679.0
1547.305143	679.5
1547.819122	683.75
1548.333047	682.0
1548.846918	679.0
1549.360734	680.5
1549.874496	680.5
1550.388204	685.75
1550.901857	681.25
1551.415455	678.75
1551.929	681.0
1552.442489	680.25
1552.955925	683.25
1553.469306	684.0
1553.982632	680.75
1554.495905	681.75
1555.009123	681.75
1555.522286	676.5
1556.035395	680.5
1556.54845	681.25
1557.06145	681.75
1557.574396	681.75
1558.087288	680.25
1558.600125	676.25
1559.112908	680.25
1559.625637	682.75
1560.138311	682.0
1560.650931	679.5
1561.163497	685.75
1561.676008	681.75
1562.188465	681.0
1562.700867	682.5
1563.213216	685.5
1563.725509	685.5
1564.237749	681.25
1564.749934	684.25
1565.262065	686.5
1565.774142	684.25
1566.286164	681.5
1566.798132	684.75
1567.310046	691.25
1567.821906	683.5
1568.333711	684.75
1568.845462	684.25
1569.357158	682.75
1569.868801	681.25
1570.380389	682.75
1570.891922	682.25
1571.403402	680.75
1571.914827	684.75
1572.426198	684.75
1572.937515	684.5
1573.448777	680.75
1573.959985	675.75
1574.471139	680.0
1574.982239	682.75
1575.493285	678.25
1576.004276	680.0
1576.515213	680.75
1577.026096	683.25
1577.536924	677.5
1578.047698	678.5
1578.558419	682.0
1579.069084	680.0
1579.579696	680.5
1580.090254	678.5
1580.600757	681.25
1581.111206	678.75
1581.621601	678.5
1582.131941	681.0
1582.642228	679.25
1583.15246	684.75
1583.662638	681.75
1584.172762	680.0
1584.682832	682.75
1585.192847	681.25
1585.702809	679.75
1586.212716	678.25
1586.722569	680.0
1587.232368	677.75
1587.742113	679.5
1588.251803	681.5
1588.76144	682.25
1589.271022	678.75
1589.78055	678.5
1590.290024	681.0
1590.799444	678.25
1591.30881	678.75
1591.818121	680.25
1592.327379	678.5
