1042.414189	767.75
1042.980685	768.25
1043.547124	771.25
1044.113505	773.25
1044.679828	767.0
1045.246093	765.75
1045.8123	764.75
1046.378449	760.25
1046.94454	756.5
1047.510573	758.0
1048.076548	753.25
1048.642465	754.5
1049.208325	753.5
1049.774126	760.5
1050.339869	757.25
1050.905555	750.75
1051.471183	753.75
1052.036752	750.75
1052.602264	750.75
1053.167718	754.25
1053.733114	744.75
1054.298452	746.25
1054.863733	750.0
1055.428955	743.25
1055.994119	740.5
1056.559226	751.0
1057.124275	749.0
1057.689266	740.5
1058.254199	743.25
1058.819074	749.5
1059.383891	741.25
1059.94865	737.5
1060.513352	746.5
1061.077996	740.75
1061.642582	743.25
1062.20711	739.0
1062.77158	741.75
1063.335992	745.0
1063.900347	746.5
1064.464643	738.5
1065.028882	746.0
1065.593063	739.75
1066.157187	737.75
1066.721252	735.75
1067.28526	737.75
1067.84921	745.25
1068.413102	741.0
1068.976936	743.25
1069.540713	736.25
1070.104431	748.75
1070.668092	733.25
1071.231696	743.5
1071.795241	737.25
1072.358729	740.25
1072.922159	736.0
1073.485531	736.0
1074.048845	741.25
1074.612102	740.0
1075.175301	737.0
1075.738442	736.25
1076.301525	734.75
1076.864551	740.75
1077.427519	740.75
1077.990429	736.75
1078.553281	731.25
1079.116076	734.5
1079.678813	739.0
1080.241492	741.75
1080.804114	741.75
1081.366678	738.75
1081.929184	739.25
1082.491633	741.5
1083.054024	737.25
1083.616357	742.25
1084.178632	735.25
1084.74085	745.25
1085.30301	735.25
1085.865113	738.0
1086.427158	741.5
1086.989145	742.25
1087.551074	745.5
1088.112946	745.0
1088.67476	741.25
1089.236517	740.75
1089.798216	738.0
1090.359857	739.75
1090.92144	736.5
1091.482966	742.0
1092.044435	743.5
1092.605845	740.0
1093.167199	741.5
1093.728494	744.25
1094.289732	736.75
1094.850912	743.0
1095.412035	746.0
1095.9731	739.5
1096.534107	744.0
1097.095057	746.0
1097.65595	742.0
1098.216784	739.75
1098.777561	737.75
1099.338281	737.25
1099.898943	741.5
1100.459547	744.0
1101.020094	741.25
1101.580584	735.75
1102.141015	737.5
1102.701389	740.0
1103.261706	739.5
1103.821965	740.25
1104.382167	735.75
1104.942311	738.25
1105.502397	738.5
1106.062426	735.5
1106.622398	740.0
1107.182312	743.0
1107.742168	735.25
1108.301967	755.25
1108.861708	935.25
1109.421392	921.5
1109.981019	931.0
1110.540587	988.0
1111.100099	1164.0
1111.659553	1040.0
1112.218949	1030.0
1112.778288	1314.0
1113.33757	1017.5
1113.896794	975.75
1114.45596	1081.75
1115.015069	754.5
1115.574121	740.5
1116.133115	739.5
1116.692052	740.5
1117.250931	739.25
1117.809753	738.0
1118.368517	743.75
1118.927224	734.75
1119.485873	739.5
1120.044465	742.0
1120.603	746.75
1121.161477	737.0
1121.719897	746.25
1122.278259	744.0
1122.836564	742.0
1123.394812	741.25
1123.953002	753.0
1124.511135	746.5
1125.06921	750.0
1125.627228	755.25
1126.185189	756.0
1126.743092	752.5
1127.300938	753.0
1127.858726	754.25
1128.416457	752.75
1128.974131	755.75
1129.531748	747.0
1130.089307	743.0
1130.646808	744.25
1131.204252	741.0
1131.761639	741.5
1132.318969	736.0
1132.876241	738.75
1133.433456	738.5
1133.990614	738.0
1134.547714	737.25
1135.104757	740.25
1135.661743	736.75
1136.218671	737.25
1136.775542	733.5
1137.332356	735.25
1137.889112	737.0
1138.445811	735.75
1139.002453	737.0
1139.559037	734.75
1140.115565	734.25
1140.672035	732.5
1141.228447	730.5
1141.784803	736.0
1142.341101	734.5
1142.897342	733.25
1143.453525	734.25
1144.009651	734.5
1144.565721	736.75
1145.121732	732.75
1145.677687	738.0
1146.233584	737.0
1146.789424	730.5
1147.345207	738.25
1147.900933	734.5
1148.456601	735.25
1149.012212	738.5
1149.567766	736.0
1150.123263	735.0
1150.678702	735.75
1151.234085	731.75
1151.78941	742.5
1152.344678	740.25
1152.899888	737.0
1153.455042	739.25
1154.010138	737.75
1154.565177	742.75
1155.120159	741.0
1155.675084	739.25
1156.229951	739.0
1156.784762	737.0
1157.339515	738.75
1157.894211	735.75
1158.44885	747.0
1159.003432	746.75
1159.557956	743.25
1160.112424	745.0
1160.666834	736.75
1161.221187	739.75
1161.775483	736.25
1162.329722	737.75
1162.883904	738.75
1163.438029	738.0
1163.992096	732.75
1164.546107	731.0
1165.10006	736.5
1165.653956	731.5
1166.207795	741.5
1166.761577	737.0
1167.315302	739.5
1167.86897	726.25
1168.422581	735.5
1168.976134	734.25
1169.529631	732.0
1170.08307	736.25
1170.636453	736.5
1171.189778	736.25
1171.743046	733.75
1172.296257	734.0
1172.849412	727.5
1173.402509	733.5
1173.955549	730.75
1174.508532	729.75
1175.061458	736.0
1175.614327	734.0
1176.167138	728.5
1176.719893	733.0
1177.272591	736.25
1177.825232	732.5
1178.377816	726.75
1178.930342	733.5
1179.482812	736.25
1180.035225	739.75
1180.587581	737.75
1181.139879	729.5
1181.692121	737.0
1182.244306	737.25
1182.796434	728.75
1183.348504	729.75
1183.900518	731.0
1184.452475	735.25
1185.004375	733.0
1185.556218	735.25
1186.108004	728.75
1186.659733	740.75
1187.211405	731.5
1187.76302	730.75
1188.314578	735.75
1188.866079	734.5
1189.417523	727.25
1189.96891	736.5
1190.520241	731.25
1191.071514	732.25
1191.622731	735.5
1192.17389	731.75
1192.724993	729.5
1193.276039	754.25
1193.827027	732.0
1194.377959	729.75
1194.928834	728.75
1195.479653	732.0
1196.030414	733.0
1196.581118	738.0
1197.131766	733.0
1197.682356	731.25
1198.23289	734.5
1198.783367	735.0
1199.333786	732.5
1199.88415	735.0
1200.434456	729.5
1200.984705	737.75
1201.534898	736.5
1202.085033	736.75
1202.635112	733.0
1203.185134	735.75
1203.735099	732.5
1204.285007	730.75
1204.834859	736.5
1205.384653	727.75
1205.934391	731.75
1206.484072	733.75
1207.033696	733.75
1207.583263	734.25
1208.132774	734.0
1208.682228	736.75
1209.231624	736.75
1209.780965	732.0
1210.330248	734.0
1210.879474	739.5
1211.428644	738.5
1211.977757	739.5
1212.526813	730.75
1213.075813	733.0
1213.624755	736.25
1214.173641	733.25
1214.72247	734.0
1215.271242	726.0
1215.819958	738.25
1216.368617	728.0
1216.917219	731.25
1217.465764	737.25
1218.014253	736.0
1218.562685	734.75
1219.11106	734.0
1219.659378	732.75
1220.20764	733.75
1220.755845	728.25
1221.303993	735.25
1221.852085	731.5
1222.400119	735.75
1222.948097	735.75
1223.496019	734.75
1224.043883	732.25
1224.591691	729.5
1225.139443	731.25
1225.687137	733.25
1226.234775	735.0
1226.782357	732.75
1227.329881	738.25
1227.877349	732.5
1228.42476	723.25
1228.972115	732.75
1229.519413	735.0
1230.066654	731.25
1230.613839	735.75
1231.160967	735.5
1231.708038	739.75
1232.255053	733.25
1232.802011	735.0
1233.348912	730.5
1233.895757	730.5
1234.442545	735.0
1234.989277	735.5
1235.535951	732.0
1236.08257	732.25
1236.629131	727.0
1237.175636	731.25
1237.722085	732.75
1238.268477	735.75
1238.814812	729.75
1239.361091	734.75
1239.907313	728.5
1240.453478	735.75
1240.999587	732.75
1241.54564	732.0
1242.091636	738.25
1242.637575	734.5
1243.183457	731.75
1243.729284	736.25
1244.275053	731.75
1244.820766	734.75
1245.366423	734.75
1245.912022	736.75
1246.457566	733.25
1247.003053	732.5
1247.548483	730.5
1248.093857	733.5
1248.639174	729.5
1249.184435	733.75
1249.729639	741.25
1250.274787	735.75
1250.819878	735.75
1251.364912	733.75
1251.909891	729.5
1252.454812	730.0
1252.999677	728.75
1253.544486	730.5
1254.089238	732.25
1254.633934	732.5
1255.178573	729.5
1255.723156	736.25
1256.267682	728.75
1256.812152	725.75
1257.356565	725.0
1257.900922	730.0
1258.445223	728.5
1258.989467	729.0
1259.533654	732.75
1260.077785	742.25
1260.62186	736.75
1261.165878	732.0
1261.70984	727.0
1262.253745	724.0
1262.797594	731.75
1263.341386	728.75
1263.885123	733.5
1264.428802	740.0
1264.972425	734.25
1265.515992	754.5
1266.059503	776.0
1266.602957	760.5
1267.146354	742.25
1267.689696	732.5
1268.23298	729.5
1268.776209	728.75
1269.319381	728.25
1269.862497	731.5
1270.405556	724.5
1270.948559	730.0
1271.491506	727.5
1272.034396	729.5
1272.57723	732.0
1273.120007	733.75
1273.662728	736.0
1274.205393	725.0
1274.748002	731.75
1275.290554	729.25
1275.83305	726.25
1276.375489	727.75
1276.917872	723.5
1277.460199	729.0
1278.00247	729.25
1278.544684	727.0
1279.086842	730.5
1279.628943	729.75
1280.170989	733.0
1280.712978	728.75
1281.25491	732.0
1281.796787	728.25
1282.338607	735.75
1282.880371	728.25
1283.422078	736.5
1283.963729	732.0
1284.505324	740.5
1285.046863	756.0
1285.588345	841.5
1286.129772	1146.0
1286.671142	1169.75
1287.212455	843.0
1287.753713	749.25
1288.294914	736.0
1288.836059	735.25
1289.377147	733.25
1289.91818	736.0
1290.459156	727.75
1291.000076	732.0
1291.54094	726.75
1292.081747	733.0
1292.622499	725.75
1293.163194	725.75
1293.703833	727.25
1294.244415	733.25
1294.784942	732.5
1295.325412	722.5
1295.865826	731.75
1296.406184	725.0
1296.946486	727.0
1297.486731	729.5
1298.026921	728.25
1298.567054	725.75
1299.107131	728.5
1299.647152	727.75
1300.187116	727.0
1300.727025	730.75
1301.266877	730.5
1301.806673	727.75
1302.346413	724.75
1302.886097	727.0
1303.425725	728.75
1303.965297	728.75
1304.504812	726.25
1305.044272	730.5
1305.583675	732.0
1306.123022	729.0
1306.662313	728.25
1307.201548	723.75
1307.740727	732.0
1308.279849	728.75
1308.818916	724.0
1309.357926	728.25
1309.896881	728.25
1310.435779	728.25
1310.974621	726.0
1311.513407	722.75
1312.052137	727.5
1312.590811	726.5
1313.129429	729.25
1313.667991	729.0
1314.206497	725.75
1314.744946	724.0
1315.28334	728.25
1315.821678	729.25
1316.359959	727.75
1316.898184	722.25
1317.436354	723.75
1317.974467	732.5
1318.512525	729.25
1319.050526	725.25
1319.588471	730.75
1320.12636	726.5
1320.664194	728.75
1321.201971	723.5
1321.739692	729.0
1322.277357	722.25
1322.814967	725.25
1323.35252	726.0
1323.890017	731.0
1324.427458	729.75
1324.964843	727.75
1325.502173	729.25
1326.039446	726.25
1326.576663	726.75
1327.113824	728.75
1327.65093	724.75
1328.187979	725.75
1328.724972	719.5
1329.26191	727.25
1329.798791	723.75
1330.335617	728.5
1330.872386	730.75
1331.4091	731.25
1331.945758	729.25
1332.48236	727.75
1333.018905	726.25
1333.555395	725.75
1334.091829	721.5
1334.628207	729.25
1335.164529	730.75
1335.700796	735.25
1336.237006	730.25
1336.77316	729.0
1337.309259	728.75
1337.845301	726.75
1338.381288	731.75
1338.917219	731.5
1339.453094	727.25
1339.988913	725.0
1340.524676	729.0
1341.060383	725.75
1341.596034	727.25
1342.13163	731.0
1342.66717	728.5
1343.202653	732.5
1343.738081	729.75
1344.273453	723.0
1344.80877	729.25
1345.34403	725.75
1345.879235	727.0
1346.414383	728.5
1346.949476	728.75
1347.484513	728.5
1348.019494	724.75
1348.55442	723.75
1349.089289	727.75
1349.624103	725.5
1350.158861	726.5
1350.693563	731.0
1351.228209	726.0
1351.7628	725.75
1352.297334	727.75
1352.831813	726.5
1353.366236	724.25
1353.900604	730.25
1354.434915	735.25
1354.969171	729.5
1355.503371	725.5
1356.037515	730.75
1356.571604	725.0
1357.105636	726.0
1357.639613	719.5
1358.173535	729.0
1358.7074	734.0
1359.24121	731.5
1359.774964	727.0
1360.308662	727.5
1360.842304	731.25
1361.375891	730.25
1361.909422	735.25
1362.442897	730.25
1362.976317	732.0
1363.50968	728.5
1364.042989	728.5
1364.576241	726.5
1365.109438	728.75
1365.642579	731.5
1366.175664	733.75
1366.708693	728.25
1367.241667	732.25
1367.774585	731.0
1368.307448	734.75
1368.840255	725.75
1369.373006	728.75
1369.905701	727.0
1370.438341	731.75
1370.970925	744.75
1371.503454	739.75
1372.035926	734.0
1372.568344	734.0
1373.100705	726.25
1373.633011	723.5
1374.165261	722.25
1374.697456	728.25
1375.229595	728.5
1375.761678	728.0
1376.293705	725.5
1376.825677	725.25
1377.357594	724.5
1377.889455	725.0
1378.42126	733.5
1378.953009	725.25
1379.484703	727.0
1380.016342	729.25
1380.547924	727.25
1381.079452	727.75
1381.610923	730.0
1382.142339	730.0
1382.673699	726.0
1383.205004	728.75
1383.736253	729.0
1384.267447	728.5
1384.798585	723.5
1385.329668	732.75
1385.860695	731.25
1386.391666	732.25
1386.922582	740.5
1387.453442	743.75
1387.984247	746.75
1388.514996	807.0
1389.04569	1142.0
1389.576328	1632.25
1390.10691	1025.75
1390.637437	777.75
1391.167909	749.75
1391.698325	737.25
1392.228685	731.5
1392.75899	731.25
1393.28924	733.0
1393.819434	732.0
1394.349572	735.5
1394.879655	729.75
1395.409683	724.25
1395.939655	726.25
1396.469571	733.0
1396.999432	727.5
1397.529237	730.75
1398.058987	729.5
1398.588682	724.25
1399.118321	728.25
1399.647905	726.5
1400.177433	726.25
1400.706906	727.5
1401.236323	729.5
1401.765685	727.25
1402.294991	727.25
1402.824242	726.0
1403.353437	733.75
1403.882577	724.5
1404.411662	727.75
1404.940691	734.0
1405.469665	729.0
1405.998583	728.5
1406.527446	727.75
1407.056253	730.5
1407.585005	730.75
1408.113702	729.25
1408.642343	732.25
1409.170929	730.75
1409.69946	738.5
1410.227935	768.25
1410.756354	823.5
1411.284719	778.5
1411.813028	737.5
1412.341281	735.75
1412.869479	732.0
1413.397622	730.5
1413.92571	730.25
1414.453742	729.5
1414.981718	727.25
1415.50964	740.25
1416.037506	737.5
1416.565316	729.75
1417.093072	728.5
1417.620772	730.0
1418.148416	728.0
1418.676005	726.25
1419.203539	727.5
1419.731018	727.75
1420.258441	723.0
1420.785809	731.0
1421.313122	729.0
1421.840379	725.5
1422.367582	729.75
1422.894728	728.25
1423.42182	727.75
1423.948856	733.75
1424.475837	732.5
1425.002762	731.25
1425.529633	729.25
1426.056448	733.25
1426.583207	729.0
1427.109912	732.0
1427.636561	727.5
1428.163155	726.5
1428.689694	728.75
1429.216177	726.0
1429.742605	728.25
1430.268978	727.5
1430.795296	729.5
1431.321558	727.75
1431.847765	726.75
1432.373917	724.25
1432.900014	727.25
1433.426056	727.75
1433.952042	726.5
1434.477973	727.25
1435.003849	729.25
1435.529669	731.25
1436.055435	729.75
1436.581145	727.0
1437.1068	729.5
1437.632399	729.75
1438.157944	724.5
1438.683433	728.75
1439.208868	728.25
1439.734247	728.75
1440.25957	722.25
1440.784839	726.0
1441.310053	729.0
1441.835211	724.75
1442.360314	724.5
1442.885362	731.0
1443.410355	728.25
1443.935292	731.25
1444.460175	726.75
1444.985002	730.0
1445.509774	729.75
1446.034491	727.5
1446.559153	727.0
1447.08376	729.0
1447.608312	727.5
1448.132808	725.5
1448.65725	733.5
1449.181636	726.5
1449.705967	727.5
1450.230243	725.25
1450.754464	722.75
1451.27863	720.5
1451.802741	724.25
1452.326797	725.75
1452.850797	725.5
1453.374743	724.0
1453.898633	728.25
1454.422468	726.25
1454.946249	723.75
1455.469974	726.25
1455.993644	722.5
1456.517259	727.0
1457.040819	724.25
1457.564324	731.75
1458.087773	731.0
1458.611168	728.0
1459.134508	724.25
1459.657793	719.75
1460.181022	729.0
1460.704197	723.75
1461.227316	725.5
1461.750381	728.0
1462.27339	727.25
1462.796345	729.5
1463.842089	745.25
1464.364878	729.5
1464.887613	724.25
1465.410292	725.0
1465.932916	723.25
1466.455486	724.25
1466.978	724.0
1467.50046	725.75
1468.022864	724.75
1468.545214	723.25
1469.067508	726.0
1469.589748	725.25
1470.111932	728.25
1470.634062	730.5
1471.156136	722.25
1471.678156	728.0
1472.20012	732.0
1472.72203	727.5
1473.243885	727.0
1473.765685	722.25
1474.28743	731.5
1474.80912	729.5
1475.330755	725.25
1475.852335	727.5
1476.37386	725.0
1476.89533	722.75
1477.416745	725.0
1477.938106	727.0
1478.459411	729.5
1478.980662	725.75
1479.501857	724.5
1480.022998	724.75
1480.544084	720.25
1481.065115	727.5
1481.586091	725.75
1482.107012	729.75
1482.627878	728.5
1483.14869	728.5
1483.669446	727.0
1484.190148	728.75
1484.710794	728.5
1485.231386	722.5
1485.751923	720.0
1486.272406	727.25
1486.792833	723.5
1487.313205	716.5
1487.833523	723.5
1488.353786	724.0
1488.873994	723.75
1489.394147	726.75
1489.914245	719.0
1490.434288	727.25
1490.954277	721.5
1491.474211	723.0
1491.99409	725.0
1492.513914	723.5
1493.033683	726.75
1493.553398	727.0
1494.073057	727.25
1494.592662	725.25
1495.112212	723.75
1495.631708	728.75
1496.151148	723.5
1496.670534	723.75
1497.189865	727.0
1497.709141	724.0
1498.228362	729.0
1498.747529	729.75
1499.266641	723.75
1499.785698	734.25
1500.3047	725.0
1500.823648	730.5
1501.34254	720.75
1501.861379	727.0
1502.380162	726.25
1502.89889	722.5
1503.417564	724.0
1503.936183	726.5
1504.454748	723.5
1504.973257	727.0
1505.491712	728.75
1506.010112	727.25
1506.528458	725.75
1507.046748	726.5
1507.564984	723.5
1508.083166	726.25
1508.601292	719.75
1509.119364	726.0
1509.637381	725.0
1510.155344	724.0
1510.673252	733.25
1511.191105	724.75
1511.708903	725.25
1512.226647	722.5
1512.744336	726.75
1513.261971	725.75
1513.77955	725.25
1514.297076	726.75
1514.814546	721.25
1515.331962	724.5
1515.849323	722.25
1516.366629	723.75
1516.883881	719.25
1517.401078	721.75
1517.918221	723.0
1518.435309	726.0
1518.952342	721.75
1519.469321	725.25
1519.986245	721.25
1520.503114	725.75
1521.019929	725.25
1521.536689	722.75
1522.053395	730.75
1522.570046	728.75
1523.086642	723.0
1523.603184	728.25
1524.119671	722.5
1524.636103	722.25
1525.152481	727.25
1525.668805	721.75
1526.185073	739.5
1526.701288	745.25
1527.217447	725.75
1527.733552	718.25
1528.249603	723.75
1528.765599	725.0
1529.28154	724.0
1529.797427	731.25
1530.313259	723.75
1530.829037	723.25
1531.34476	726.5
1531.860429	726.75
1532.376043	725.75
1532.891602	727.0
1533.407107	721.5
1533.922558	722.0
1534.437954	726.25
1534.953295	727.75
1535.468582	725.75
1535.983815	725.25
1536.498993	727.25
1537.014116	724.25
1537.529185	720.25
1538.044199	722.0
1538.559159	725.5
1539.074064	721.25
1539.588915	724.0
1540.103712	723.75
1540.618454	720.25
1541.133141	721.25
1541.647774	722.5
1542.162353	725.0
1542.676877	724.5
1543.191346	732.0
1543.705761	729.0
1544.220122	722.0
1544.734428	721.75
1545.24868	725.25
1545.762877	724.75
1546.27702	729.5
1546.791109	724.75
1547.305143	729.5
1547.819122	728.5
1548.333047	721.5
1548.846918	728.5
1549.360734	729.5
1549.874496	729.25
1550.388204	725.25
1550.901857	725.0
1551.415455	730.25
1551.929	720.0
1552.442489	724.0
1552.955925	721.5
1553.469306	726.5
1553.982632	726.25
1554.495905	723.5
1555.009123	725.75
1555.522286	728.5
1556.035395	720.75
1556.54845	724.25
1557.06145	726.25
1557.574396	728.5
1558.087288	731.75
1558.600125	728.0
1559.112908	728.0
1559.625637	725.0
1560.138311	732.25
1560.650931	725.25
1561.163497	726.75
1561.676008	721.75
1562.188465	721.5
1562.700867	721.5
1563.213216	728.25
1563.725509	731.25
1564.237749	725.75
1564.749934	727.5
1565.262065	727.25
1565.774142	727.5
1566.286164	723.75
1566.798132	726.5
1567.310046	728.5
1567.821906	725.5
1568.333711	730.25
1568.845462	732.0
1569.357158	728.5
1569.868801	724.0
1570.380389	726.25
1570.891922	725.5
1571.403402	723.0
1571.914827	724.75
1572.426198	724.75
1572.937515	725.0
1573.448777	725.25
1573.959985	724.75
1574.471139	721.0
1574.982239	724.0
1575.493285	723.75
1576.004276	729.25
1576.515213	718.5
1577.026096	719.5
1577.536924	728.5
1578.047698	725.75
1578.558419	727.75
1579.069084	725.0
1579.579696	729.5
1580.090254	724.0
1580.600757	721.0
1581.111206	728.75
1581.621601	724.75
1582.131941	727.0
1582.642228	725.75
1583.15246	721.25
1583.662638	722.0
1584.172762	724.25
1584.682832	723.25
1585.192847	721.75
1585.702809	725.5
1586.212716	724.5
1586.722569	730.25
1587.232368	720.5
1587.742113	726.5
1588.251803	720.75
1588.76144	722.0
1589.271022	719.25
1589.78055	719.0
1590.290024	722.75
1590.799444	726.25
1591.30881	724.5
1591.818121	723.25
1592.327379	724.75
