1042.414189	714.75
1042.980685	718.25
1043.547124	714.0
1044.113505	710.5
1044.679828	707.75
1045.246093	701.75
1045.8123	705.75
1046.378449	700.75
1046.94454	708.25
1047.510573	700.25
1048.076548	698.75
1048.642465	701.5
1049.208325	696.0
1049.774126	695.25
1050.339869	696.5
1050.905555	699.0
1051.471183	688.5
1052.036752	694.0
1052.602264	692.0
1053.167718	688.0
1053.733114	688.0
1054.298452	688.25
1054.863733	691.25
1055.428955	687.25
1055.994119	686.25
1056.559226	687.5
1057.124275	686.5
1057.689266	689.0
1058.254199	688.5
1058.819074	683.5
1059.383891	683.75
1059.94865	682.5
1060.513352	681.75
1061.077996	683.25
1061.642582	679.0
1062.20711	682.25
1062.77158	683.25
1063.335992	682.0
1063.900347	680.25
1064.464643	682.25
1065.028882	681.25
1065.593063	679.5
1066.157187	678.0
1066.721252	681.75
1067.28526	678.0
1067.84921	681.0
1068.413102	678.5
1068.976936	676.75
1069.540713	676.25
1070.104431	681.25
1070.668092	673.25
1071.231696	680.0
1071.795241	676.75
1072.358729	677.25
1072.922159	676.25
1073.485531	680.25
1074.048845	680.5
1074.612102	676.0
1075.175301	675.25
1075.738442	673.75
1076.301525	677.25
1076.864551	677.0
1077.427519	677.25
1077.990429	680.75
1078.553281	681.0
1079.116076	675.5
1079.678813	675.0
1080.241492	674.25
1080.804114	679.5
1081.366678	675.0
1081.929184	676.25
1082.491633	678.75
1083.054024	677.75
1083.616357	676.75
1084.178632	676.75
1084.74085	674.75
1085.30301	677.0
1085.865113	673.5
1086.427158	676.0
1086.989145	675.25
1087.551074	677.25
1088.112946	676.0
1088.67476	673.25
1089.236517	678.0
1089.798216	697.25
1091.482966	675.25
1092.044435	675.5
1092.605845	675.5
1093.167199	678.75
1093.728494	676.5
1094.289732	676.5
1094.850912	675.25
1095.412035	686.25
1095.9731	676.75
1096.534107	673.75
1097.095057	684.75
1097.65595	675.0
1098.216784	678.0
1098.777561	675.25
1099.338281	675.0
1099.898943	675.0
1100.459547	672.5
1101.020094	673.75
1101.580584	679.75
1102.141015	678.25
1102.701389	672.75
1103.261706	675.5
1103.821965	675.25
1104.382167	671.75
1104.942311	672.0
1105.502397	675.0
1106.062426	678.5
1106.622398	678.5
1107.182312	675.25
1107.742168	675.5
1108.301967	676.5
1108.861708	674.0
1109.421392	677.5
1109.981019	675.0
1110.540587	675.5
1111.100099	677.25
1111.659553	677.0
1112.218949	678.25
1112.778288	675.5
1113.33757	676.5
1113.896794	673.0
1114.45596	674.5
1115.015069	674.5
1115.574121	676.0
1116.133115	676.5
1116.692052	677.0
1117.250931	677.5
1117.809753	680.0
1118.368517	676.25
1118.927224	674.5
1119.485873	675.25
1120.044465	675.75
1120.603	678.5
1121.161477	674.25
1121.719897	676.25
1122.278259	677.25
1122.836564	672.25
1123.394812	680.25
1123.953002	674.5
1124.511135	676.0
1125.06921	674.75
1125.627228	676.0
1126.185189	676.25
1126.743092	675.75
1127.300938	673.25
1127.858726	675.75
1128.416457	674.5
1128.974131	673.5
1129.531748	678.0
1130.089307	678.0
1130.646808	673.0
1131.204252	675.5
1131.761639	676.0
1132.318969	673.5
1132.876241	673.5
1133.433456	675.75
1133.990614	670.5
1134.547714	672.5
1135.104757	675.5
1135.661743	671.75
1136.218671	676.0
1136.775542	676.5
1137.332356	675.75
1137.889112	676.0
1138.445811	673.25
1139.002453	673.5
1139.559037	678.25
1140.115565	672.0
1140.672035	673.75
1141.228447	675.75
1141.784803	671.0
1142.341101	677.5
1142.897342	675.25
1143.453525	675.5
1144.009651	675.25
1144.565721	674.0
1145.121732	674.5
1145.677687	674.75
1146.233584	673.0
1146.789424	674.0
1147.345207	676.0
1147.900933	675.5
1148.456601	675.0
1149.012212	677.0
1149.567766	678.5
1150.123263	672.75
1150.678702	679.25
1151.234085	682.75
1151.78941	682.0
1152.344678	679.75
1152.899888	674.75
1153.455042	673.75
1154.010138	675.75
1154.565177	675.5
1155.120159	677.5
1155.675084	677.25
1156.229951	673.5
1156.784762	676.75
1157.339515	675.0
1157.894211	674.75
1158.44885	674.5
1159.003432	676.5
1159.557956	675.0
1160.112424	675.25
1160.666834	678.0
1161.221187	676.25
1161.775483	673.0
1162.329722	676.5
1162.883904	675.25
1163.438029	671.25
1163.992096	676.25
1164.546107	674.0
1165.10006	676.75
1165.653956	671.75
1166.207795	675.0
1166.761577	676.5
1167.315302	672.25
1167.86897	677.0
1168.422581	675.5
1168.976134	677.25
1169.529631	676.5
1170.08307	676.5
1170.636453	673.5
1171.189778	673.25
1171.743046	672.5
1172.296257	674.25
1172.849412	674.75
1173.402509	676.5
1173.955549	674.25
1174.508532	672.5
1175.061458	674.0
1175.614327	671.5
1176.167138	674.5
1176.719893	673.75
1177.272591	674.5
1177.825232	678.75
1178.377816	673.25
1178.930342	675.5
1179.482812	675.25
1180.035225	671.25
1180.587581	671.5
1181.139879	675.5
1181.692121	671.5
1182.244306	675.0
1182.796434	674.25
1183.348504	674.75
1183.900518	674.0
1184.452475	673.25
1185.004375	678.0
1185.556218	675.25
1186.108004	673.25
1186.659733	675.5
1187.211405	675.0
1187.76302	677.75
1188.314578	673.75
1188.866079	677.5
1189.417523	675.75
1189.96891	675.25
1190.520241	675.25
1191.071514	673.75
1191.622731	674.5
1192.17389	673.5
1192.724993	672.75
1193.276039	694.25
1193.827027	679.5
1194.377959	673.75
1194.928834	675.25
1195.479653	677.25
1196.030414	675.5
1196.581118	674.0
1197.131766	673.25
1197.682356	672.5
1198.23289	676.0
1198.783367	672.5
1199.333786	672.5
1199.88415	674.0
1200.434456	671.0
1200.984705	672.5
1201.534898	672.25
1202.085033	674.0
1202.635112	676.25
1203.185134	675.25
1203.735099	676.75
1204.285007	675.0
1204.834859	669.75
1205.384653	673.0
1205.934391	675.25
1206.484072	675.0
1207.033696	674.75
1207.583263	672.5
1208.132774	676.75
1208.682228	673.75
1209.231624	670.0
1209.780965	675.25
1210.330248	673.25
1210.879474	674.0
1211.428644	679.25
1211.977757	675.0
1212.526813	675.5
1213.075813	677.75
1213.624755	675.25
1214.173641	675.5
1214.72247	675.75
1215.271242	673.25
1215.819958	676.25
1216.368617	674.25
1216.917219	676.75
1217.465764	674.25
1218.014253	675.25
1218.562685	672.25
1219.11106	675.5
1219.659378	675.75
1220.20764	674.75
1220.755845	673.5
1221.303993	676.25
1221.852085	680.75
1222.400119	674.0
1222.948097	675.75
1223.496019	671.5
1224.043883	674.0
1224.591691	673.5
1225.139443	675.75
1225.687137	677.75
1226.234775	676.5
1226.782357	672.25
1227.329881	676.75
1227.877349	675.0
1228.42476	675.75
1228.972115	675.25
1229.519413	672.5
1230.066654	674.5
1230.613839	674.5
1231.160967	674.25
1231.708038	676.75
1232.255053	673.0
1232.802011	675.75
1233.348912	672.5
1233.895757	673.25
1234.442545	675.0
1234.989277	673.25
1235.535951	674.0
1236.08257	675.25
1236.629131	675.75
1237.175636	676.0
1237.722085	676.75
1238.268477	674.5
1238.814812	675.25
1239.361091	676.25
1239.907313	671.0
1240.453478	676.25
1240.999587	673.0
1241.54564	672.5
1242.091636	673.25
1242.637575	673.75
1243.183457	676.5
1243.729284	672.75
1244.275053	674.5
1244.820766	675.75
1245.366423	673.25
1245.912022	675.25
1246.457566	675.75
1247.003053	671.75
1247.548483	676.25
1248.093857	675.25
1248.639174	676.25
1249.184435	676.75
1249.729639	675.25
1250.274787	677.25
1250.819878	676.75
1251.364912	674.5
1251.909891	671.75
1252.454812	673.75
1252.999677	673.75
1253.544486	672.25
1254.089238	674.25
1254.633934	673.75
1255.178573	676.5
1255.723156	674.5
1256.267682	675.75
1256.812152	671.75
1257.356565	672.5
1257.900922	674.25
1258.445223	675.25
1258.989467	675.75
1259.533654	677.25
1260.077785	683.75
1260.62186	678.5
1261.165878	673.25
1261.70984	671.5
1262.253745	672.75
1262.797594	675.25
1263.341386	673.0
1263.885123	676.25
1264.428802	675.25
1264.972425	675.5
1265.515992	691.75
1266.059503	709.0
1266.602957	698.25
1267.146354	681.5
1267.689696	677.5
1268.23298	677.75
1268.776209	673.75
1269.319381	670.75
1269.862497	675.25
1270.405556	674.25
1270.948559	673.0
1271.491506	673.5
1272.034396	672.75
1272.57723	674.75
1273.120007	672.75
1273.662728	675.0
1274.205393	672.25
1274.748002	672.5
1275.290554	671.25
1275.83305	673.25
1276.375489	669.0
1276.917872	673.5
1277.460199	672.0
1278.00247	676.25
1278.544684	675.25
1279.086842	674.75
1279.628943	674.0
1280.170989	673.0
1280.712978	671.25
1281.25491	673.5
1281.796787	672.25
1282.338607	674.75
1282.880371	678.0
1283.422078	675.75
1283.963729	680.5
1284.505324	685.0
1285.046863	707.0
1285.588345	792.5
1286.129772	1073.25
1286.671142	1018.75
1287.212455	754.0
1287.753713	692.25
1288.294914	683.75
1288.836059	680.75
1289.377147	675.75
1289.91818	675.0
1290.459156	675.5
1291.000076	673.5
1291.54094	673.25
1292.081747	676.0
1292.622499	674.75
1293.163194	670.25
1293.703833	669.0
1294.244415	670.0
1294.784942	671.5
1295.325412	672.5
1295.865826	670.25
1296.406184	674.5
1296.946486	674.0
1297.486731	672.25
1298.026921	671.0
1298.567054	671.5
1299.107131	671.75
1299.647152	672.0
1300.187116	669.75
1300.727025	674.25
1301.266877	672.75
1301.806673	669.5
1302.346413	675.0
1302.886097	673.0
1303.425725	675.25
1303.965297	669.25
1304.504812	672.5
1305.044272	670.25
1305.583675	672.25
1306.123022	671.75
1306.662313	669.5
1307.201548	669.5
1307.740727	675.0
1308.279849	674.5
1308.818916	675.5
1309.357926	669.5
1309.896881	670.5
1310.435779	671.0
1310.974621	672.75
1311.513407	670.25
1312.052137	674.5
1312.590811	672.25
1313.129429	672.75
1313.667991	669.75
1314.206497	669.5
1314.744946	670.75
1315.28334	672.0
1315.821678	671.0
1316.359959	669.5
1316.898184	674.25
1317.436354	673.0
1317.974467	672.5
1318.512525	670.75
1319.050526	669.0
1319.588471	672.75
1320.12636	672.5
1320.664194	673.0
1321.201971	669.75
1321.739692	671.0
1322.277357	672.5
1322.814967	668.75
1323.35252	672.25
1323.890017	677.75
1324.427458	671.0
1324.964843	675.0
1325.502173	673.5
1326.039446	667.75
1326.576663	671.75
1327.113824	670.75
1327.65093	671.5
1328.187979	668.25
1328.724972	669.75
1329.26191	672.25
1329.798791	671.25
1330.335617	670.75
1330.872386	668.5
1331.4091	670.25
1331.945758	669.75
1332.48236	671.75
1333.018905	675.5
1333.555395	670.0
1334.091829	669.25
1334.628207	673.5
1335.164529	670.0
1335.700796	672.75
1336.237006	672.25
1336.77316	671.5
1337.309259	674.25
1337.845301	672.75
1338.381288	672.0
1338.917219	670.0
1339.453094	670.25
1339.988913	674.25
1340.524676	671.0
1341.060383	669.75
1341.596034	673.75
1342.13163	674.5
1342.66717	674.5
1343.202653	672.25
1343.738081	671.25
1344.273453	672.5
1344.80877	671.0
1345.34403	669.5
1345.879235	670.25
1346.414383	673.25
1346.949476	673.0
1347.484513	672.75
1348.019494	671.0
1348.55442	669.5
1349.089289	671.25
1349.624103	672.5
1350.158861	671.0
1350.693563	673.0
1351.228209	669.25
1351.7628	670.75
1352.297334	670.5
1352.831813	678.0
1353.366236	672.25
1353.900604	670.75
1354.434915	672.0
1354.969171	673.25
1355.503371	671.75
1356.037515	676.25
1356.571604	672.75
1357.105636	669.0
1357.639613	673.25
1358.173535	672.75
1358.7074	671.25
1359.24121	671.25
1359.774964	671.5
1360.308662	672.75
1360.842304	670.5
1361.375891	672.5
1361.909422	672.75
1362.442897	674.25
1362.976317	671.5
1363.50968	670.0
1364.042989	671.75
1364.576241	670.5
1365.109438	672.0
1365.642579	674.5
1366.175664	673.0
1366.708693	674.25
1367.241667	672.5
1367.774585	674.75
1368.307448	676.25
1368.840255	674.25
1369.373006	672.25
1369.905701	671.75
1370.438341	672.25
1370.970925	681.75
1371.503454	680.5
1372.035926	672.75
1372.568344	674.25
1373.100705	672.75
1373.633011	672.75
1374.165261	670.5
1374.697456	671.75
1375.229595	673.5
1375.761678	671.25
1376.293705	675.25
1376.825677	674.0
1377.357594	671.5
1377.889455	671.5
1378.42126	672.5
1378.953009	671.75
1379.484703	672.25
1380.016342	671.5
1380.547924	672.0
1381.079452	675.75
1381.610923	673.5
1382.142339	673.5
1382.673699	674.75
1383.205004	670.25
1383.736253	676.75
1384.267447	674.0
1384.798585	674.75
1385.329668	671.75
1385.860695	676.75
1386.391666	679.25
1386.922582	679.25
1387.453442	684.5
1387.984247	695.5
1388.514996	751.75
1389.04569	1087.25
1389.576328	1449.75
1390.10691	903.0
1390.637437	710.5
1391.167909	684.5
1391.698325	683.0
1392.228685	677.0
1392.75899	674.25
1393.28924	676.5
1393.819434	676.25
1394.349572	673.5
1394.879655	672.0
1395.409683	671.0
1395.939655	675.5
1396.469571	673.5
1396.999432	672.0
1397.529237	671.5
1398.058987	674.25
1398.588682	673.25
1399.118321	673.0
1399.647905	670.5
1400.177433	673.75
1400.706906	673.0
1401.236323	670.75
1401.765685	671.0
1402.294991	673.5
1402.824242	675.0
1403.353437	673.5
1403.882577	672.0
1404.411662	673.0
1404.940691	674.0
1405.469665	674.0
1405.998583	674.75
1406.527446	670.75
1407.056253	672.75
1407.585005	673.0
1408.113702	673.5
1408.642343	673.0
1409.170929	669.5
1409.69946	678.25
1410.227935	700.0
1410.756354	736.0
1411.284719	710.25
1411.813028	682.75
1412.341281	672.0
1412.869479	674.0
1413.397622	669.75
1413.92571	671.75
1414.453742	669.25
1414.981718	669.75
1415.50964	680.5
1416.037506	675.25
1416.565316	671.0
1417.093072	670.25
1417.620772	673.25
1418.148416	675.25
1418.676005	673.75
1419.203539	673.0
1419.731018	675.75
1420.258441	672.0
1420.785809	669.25
1421.313122	671.75
1421.840379	673.25
1422.367582	673.75
1422.894728	672.5
1423.42182	665.25
1423.948856	672.75
1424.475837	669.75
1425.002762	674.5
1425.529633	674.25
1426.056448	672.5
1426.583207	675.5
1427.109912	673.0
1427.636561	673.5
1428.163155	670.75
1428.689694	667.5
1429.216177	673.25
1429.742605	671.25
1430.268978	672.5
1430.795296	672.25
1431.321558	670.0
1431.847765	673.5
1432.373917	667.25
1432.900014	672.25
1433.426056	671.75
1433.952042	673.5
1434.477973	669.75
1435.003849	671.25
1435.529669	670.0
1436.055435	672.0
1436.581145	668.75
1437.1068	671.25
1437.632399	670.5
1438.157944	670.5
1438.683433	670.25
1439.208868	670.75
1439.734247	670.75
1440.25957	670.25
1440.784839	670.75
1441.310053	668.75
1441.835211	671.25
1442.360314	674.0
1442.885362	669.75
1443.410355	669.25
1443.935292	670.5
1444.460175	669.5
1444.985002	670.0
1445.509774	672.5
1446.034491	675.25
1446.559153	670.0
1447.08376	670.75
1447.608312	669.75
1448.132808	671.75
1448.65725	670.5
1449.181636	669.5
1449.705967	670.5
1450.230243	672.75
1450.754464	672.5
1451.27863	669.25
1451.802741	670.75
1452.326797	671.0
1452.850797	670.25
1453.374743	669.25
1453.898633	670.25
1454.422468	667.25
1454.946249	671.25
1455.469974	671.25
1455.993644	668.25
1456.517259	671.0
1457.040819	667.75
1457.564324	671.0
1458.087773	669.25
1458.611168	668.25
1459.134508	672.5
1459.657793	671.75
1460.181022	670.25
1460.704197	673.25
1461.227316	668.0
1461.750381	668.25
1462.27339	668.0
1462.796345	675.25
1463.319244	693.75
1463.842089	684.5
1464.364878	674.0
1464.887613	671.75
1465.410292	670.0
1465.932916	668.5
1466.455486	672.5
1466.978	669.25
1467.50046	670.75
1468.022864	669.75
1468.545214	670.25
1469.067508	671.25
1469.589748	669.0
1470.111932	669.5
1470.634062	668.5
1471.156136	671.75
1471.678156	675.5
1472.20012	670.5
1472.72203	669.0
1473.243885	670.75
1473.765685	673.75
1474.28743	671.0
1474.80912	671.5
1475.330755	670.25
1475.852335	667.25
1476.37386	669.75
1476.89533	668.75
1477.416745	671.75
1477.938106	668.25
1478.459411	668.0
1478.980662	668.0
1479.501857	669.5
1480.022998	669.25
1480.544084	670.25
1481.065115	669.0
1481.586091	670.0
1482.107012	673.75
1482.627878	672.5
1483.14869	668.25
1483.669446	668.5
1484.190148	672.0
1484.710794	669.5
1485.231386	670.0
1485.751923	668.75
1486.272406	674.0
1486.792833	670.25
1487.313205	671.25
1487.833523	668.25
1488.353786	669.5
1488.873994	666.5
1489.394147	669.0
1489.914245	673.75
1490.434288	667.5
1490.954277	666.0
1491.474211	668.75
1491.99409	670.5
1492.513914	670.0
1493.033683	666.75
1493.553398	667.75
1494.073057	667.25
1494.592662	669.25
1495.112212	670.75
1495.631708	670.0
1496.151148	669.0
1496.670534	669.25
1497.189865	668.5
1497.709141	667.5
1498.228362	667.75
1498.747529	671.0
1499.266641	669.25
1499.785698	679.25
1500.3047	670.25
1500.823648	669.25
1501.34254	668.0
1501.861379	667.25
1502.380162	669.75
1502.89889	667.5
1503.417564	670.0
1503.936183	671.75
1504.454748	669.0
1504.973257	667.75
1505.491712	669.25
1506.010112	669.5
1506.528458	669.25
1507.046748	670.0
1507.564984	669.25
1508.083166	667.5
1508.601292	668.75
1509.119364	671.75
1509.637381	669.5
1510.155344	670.25
1510.673252	677.5
1511.191105	669.75
1511.708903	668.75
1512.226647	671.0
1512.744336	669.25
1513.261971	669.5
1513.77955	672.25
1514.297076	670.75
1514.814546	667.5
1515.331962	671.0
1515.849323	669.75
1516.366629	672.5
1516.883881	668.75
1517.401078	670.25
1517.918221	668.0
1518.435309	671.5
1518.952342	669.0
1519.469321	669.0
1519.986245	672.75
1520.503114	668.5
1521.019929	669.75
1521.536689	667.5
1522.053395	668.5
1522.570046	667.5
1523.086642	666.75
1523.603184	672.25
1524.119671	670.0
1524.636103	668.0
1525.152481	669.5
1525.668805	671.0
1526.185073	683.25
1526.701288	686.0
1527.217447	671.75
1527.733552	671.0
1528.249603	669.25
1528.765599	669.75
1529.28154	668.75
1529.797427	668.0
1530.313259	671.75
1530.829037	672.75
1531.34476	667.5
1531.860429	671.25
1532.376043	671.5
1532.891602	667.25
1533.407107	669.25
1533.922558	667.5
1534.437954	674.75
1534.953295	673.5
1535.468582	668.75
1535.983815	673.25
1536.498993	672.25
1537.014116	671.0
1537.529185	668.25
1538.044199	670.25
1538.559159	667.0
1539.074064	668.25
1539.588915	668.75
1540.103712	669.25
1540.618454	670.5
1541.133141	670.75
1541.647774	668.0
1542.162353	670.25
1542.676877	669.5
1543.191346	668.75
1543.705761	668.25
1544.220122	668.5
1544.734428	668.0
1545.24868	672.5
1545.762877	668.0
1546.27702	670.0
1546.791109	669.75
1547.305143	668.75
1547.819122	669.75
1548.333047	670.75
1548.846918	668.0
1549.360734	669.5
1549.874496	671.0
1550.388204	670.75
1550.901857	667.0
1551.415455	671.0
1551.929	670.75
1552.442489	668.25
1552.955925	671.0
1553.469306	669.25
1553.982632	669.0
1554.495905	667.25
1555.009123	673.5
1555.522286	670.0
1556.035395	665.75
1556.54845	670.5
1557.06145	670.75
1557.574396	671.75
1558.087288	672.5
1558.600125	672.5
1559.112908	671.75
1559.625637	669.75
1560.138311	672.0
1560.650931	670.0
1561.163497	670.75
1561.676008	669.25
1562.188465	670.0
1562.700867	672.25
1563.213216	670.0
1563.725509	671.0
1564.237749	671.75
1564.749934	672.5
1565.262065	673.25
1565.774142	672.5
1566.286164	673.5
1566.798132	673.0
1567.310046	670.25
1567.821906	672.75
1568.333711	671.25
1568.845462	669.25
1569.357158	670.5
1569.868801	669.75
1570.380389	670.75
1570.891922	668.25
1571.403402	670.0
1571.914827	668.75
1572.426198	670.0
1572.937515	670.5
1573.448777	669.25
1573.959985	668.0
1574.471139	669.0
1574.982239	667.75
1575.493285	669.25
1576.004276	668.75
1576.515213	671.25
1577.026096	667.25
1577.536924	672.25
1578.047698	668.25
1578.558419	668.75
1579.069084	668.5
1579.579696	669.0
1580.090254	666.5
1580.600757	670.25
1581.111206	669.5
1581.621601	666.0
1582.131941	668.75
1582.642228	670.75
1583.15246	669.75
1583.662638	668.0
1584.172762	667.75
1584.682832	673.0
1585.192847	669.25
1585.702809	668.25
1586.212716	669.5
1586.722569	665.75
1587.232368	667.5
1587.742113	668.0
1588.251803	669.5
1588.76144	667.5
1589.271022	670.25
1589.78055	667.75
1590.290024	666.75
1590.799444	668.75
1591.30881	670.25
1591.818121	670.0
1592.327379	668.0
