1042.414189	717.5
1042.980685	710.5
1043.547124	712.5
1044.113505	709.75
1044.679828	707.5
1045.246093	710.5
1045.8123	707.25
1046.378449	708.75
1046.94454	705.75
1047.510573	706.0
1048.076548	703.0
1048.642465	698.5
1049.208325	698.5
1049.774126	697.5
1050.339869	698.5
1050.905555	696.5
1051.471183	696.5
1052.036752	699.25
1052.602264	691.25
1053.167718	697.0
1053.733114	696.75
1054.298452	694.75
1054.863733	694.0
1055.428955	696.25
1055.994119	692.5
1056.559226	692.75
1057.124275	693.0
1057.689266	695.0
1058.254199	689.0
1058.819074	694.75
1059.383891	689.5
1059.94865	686.0
1060.513352	689.75
1061.077996	688.0
1061.642582	689.25
1062.20711	689.25
1062.77158	687.5
1063.335992	687.75
1063.900347	685.5
1064.464643	688.75
1065.028882	685.25
1065.593063	689.5
1066.157187	687.75
1066.721252	686.25
1067.28526	689.75
1067.84921	683.5
1068.413102	691.0
1068.976936	688.5
1069.540713	688.75
1070.104431	692.75
1070.668092	686.25
1071.231696	684.0
1071.795241	690.75
1072.358729	687.75
1072.922159	683.75
1073.485531	684.0
1074.048845	687.25
1074.612102	684.75
1075.175301	685.75
1075.738442	689.0
1076.301525	686.0
1076.864551	682.5
1077.427519	688.5
1077.990429	683.75
1078.553281	686.0
1079.116076	682.25
1079.678813	688.0
1080.241492	688.25
1080.804114	685.0
1081.366678	685.75
1081.929184	686.5
1082.491633	686.25
1083.054024	683.5
1083.616357	686.25
1084.178632	686.25
1084.74085	687.75
1085.30301	689.5
1085.865113	690.25
1086.427158	686.25
1086.989145	691.0
1087.551074	682.5
1088.112946	684.75
1088.67476	683.25
1089.236517	682.25
1089.798216	683.5
1090.359857	687.5
1090.92144	683.5
1091.482966	684.25
1092.044435	680.25
1092.605845	681.0
1093.167199	682.25
1093.728494	687.75
1094.289732	681.75
1094.850912	684.75
1095.412035	691.0
1095.9731	685.0
1096.534107	682.75
1097.095057	689.75
1097.65595	684.0
1098.216784	685.25
1098.777561	684.5
1099.338281	683.75
1099.898943	682.5
1100.459547	682.75
1101.020094	685.25
1101.580584	685.25
1102.141015	682.75
1102.701389	687.0
1103.261706	682.75
1103.821965	684.0
1104.382167	678.0
1104.942311	686.5
1105.502397	682.75
1106.062426	684.75
1106.622398	680.5
1107.182312	688.0
1107.742168	684.25
1108.301967	683.25
1108.861708	682.25
1109.421392	684.0
1109.981019	685.0
1110.540587	682.5
1111.100099	683.75
1111.659553	680.0
1112.218949	684.0
1112.778288	683.5
1113.33757	681.25
1113.896794	687.75
1114.45596	685.0
1115.015069	687.5
1115.574121	687.5
1116.133115	681.0
1116.692052	684.75
1117.250931	688.25
1117.809753	685.75
1118.368517	686.25
1118.927224	682.25
1119.485873	683.25
1120.044465	685.5
1120.603	680.0
1121.161477	681.75
1121.719897	684.75
1122.278259	680.25
1122.836564	681.5
1123.394812	685.5
1123.953002	685.0
1124.511135	684.25
1125.06921	682.25
1125.627228	684.75
1126.185189	686.75
1126.743092	686.5
1127.300938	681.0
1127.858726	683.25
1128.416457	680.75
1128.974131	684.5
1129.531748	685.25
1130.089307	682.75
1130.646808	681.75
1131.204252	678.25
1131.761639	684.25
1132.318969	685.0
1132.876241	684.0
1133.433456	683.0
1133.990614	687.75
1134.547714	681.25
1135.104757	686.25
1135.661743	684.25
1136.218671	684.25
1136.775542	683.0
1137.332356	687.25
1137.889112	684.25
1138.445811	684.25
1139.002453	685.25
1139.559037	683.5
1140.115565	682.5
1140.672035	684.0
1141.228447	683.5
1141.784803	685.25
1142.341101	681.0
1142.897342	683.5
1143.453525	686.0
1144.009651	683.0
1144.565721	679.5
1145.121732	686.75
1145.677687	685.0
1146.233584	684.25
1146.789424	684.25
1147.345207	686.0
1147.900933	686.0
1148.456601	684.0
1149.012212	683.75
1149.567766	685.0
1150.123263	685.0
1150.678702	682.25
1151.234085	682.25
1151.78941	686.0
1152.344678	685.25
1152.899888	683.25
1153.455042	681.5
1154.010138	684.75
1154.565177	685.0
1155.120159	683.25
1155.675084	681.25
1156.229951	682.25
1156.784762	688.25
1157.339515	682.5
1157.894211	682.75
1158.44885	681.0
1159.003432	686.5
1159.557956	682.5
1160.112424	686.0
1160.666834	688.25
1161.221187	685.0
1161.775483	687.75
1162.329722	686.0
1162.883904	684.25
1163.438029	684.0
1163.992096	686.75
1164.546107	687.25
1165.10006	686.5
1165.653956	683.0
1166.207795	684.75
1166.761577	683.5
1167.315302	686.5
1167.86897	682.5
1168.422581	684.75
1168.976134	685.0
1169.529631	689.25
1170.08307	685.0
1170.636453	684.5
1171.189778	686.25
1171.743046	683.25
1172.296257	683.75
1172.849412	685.25
1173.402509	686.75
1173.955549	684.5
1174.508532	685.5
1175.061458	679.0
1175.614327	682.0
1176.167138	687.0
1176.719893	687.75
1177.272591	683.5
1177.825232	683.5
1178.377816	683.75
1178.930342	682.25
1179.482812	683.5
1180.035225	683.0
1180.587581	681.0
1181.139879	684.25
1181.692121	683.5
1182.244306	682.0
1182.796434	681.5
1183.348504	684.0
1183.900518	684.5
1184.452475	683.25
1185.004375	683.75
1185.556218	682.5
1186.108004	681.0
1186.659733	683.75
1187.211405	684.75
1187.76302	682.5
1188.314578	683.0
1188.866079	685.5
1189.417523	683.75
1189.96891	683.75
1190.520241	683.75
1191.071514	684.25
1191.622731	683.0
1192.17389	679.75
1192.724993	682.5
1193.276039	700.5
1193.827027	681.5
1194.377959	686.25
1194.928834	686.25
1195.479653	682.25
1196.030414	683.25
1196.581118	686.5
1197.131766	685.5
1197.682356	687.25
1198.23289	682.0
1198.783367	685.25
1199.333786	682.75
1199.88415	683.5
1200.434456	686.0
1200.984705	684.75
1201.534898	687.75
1202.085033	687.75
1202.635112	684.75
1203.185134	683.25
1203.735099	684.0
1204.285007	688.75
1204.834859	680.0
1205.384653	685.75
1205.934391	684.25
1206.484072	680.5
1207.033696	685.0
1207.583263	686.5
1208.132774	686.25
1208.682228	685.25
1209.231624	683.5
1209.780965	684.25
1210.330248	685.75
1210.879474	683.25
1211.428644	684.5
1211.977757	685.25
1212.526813	683.25
1213.075813	688.0
1213.624755	686.5
1214.173641	681.5
1214.72247	686.25
1215.271242	684.5
1215.819958	690.25
1216.368617	690.75
1216.917219	684.25
1217.465764	685.25
1218.014253	686.0
1218.562685	683.75
1219.11106	687.5
1219.659378	683.5
1220.20764	684.5
1220.755845	685.75
1221.303993	685.25
1221.852085	685.5
1222.400119	687.5
1222.948097	685.0
1223.496019	685.5
1224.043883	684.25
1224.591691	684.5
1225.139443	689.5
1225.687137	680.75
1226.234775	684.5
1226.782357	688.0
1227.329881	682.75
1227.877349	685.25
1228.42476	690.0
1228.972115	687.5
1229.519413	688.0
1230.066654	689.0
1230.613839	685.5
1231.160967	689.75
1231.708038	689.0
1232.255053	685.25
1232.802011	687.0
1233.348912	688.0
1233.895757	684.25
1234.442545	687.5
1234.989277	686.75
1235.535951	690.0
1236.08257	688.75
1236.629131	689.0
1237.175636	690.25
1237.722085	686.75
1238.268477	688.0
1238.814812	685.25
1239.361091	687.25
1239.907313	688.75
1240.453478	685.25
1240.999587	691.75
1241.54564	686.0
1242.091636	692.5
1242.637575	689.25
1243.183457	684.5
1243.729284	689.5
1244.275053	686.0
1244.820766	688.5
1245.366423	686.0
1245.912022	685.5
1246.457566	689.5
1247.003053	684.75
1247.548483	687.0
1248.093857	690.25
1248.639174	686.75
1249.184435	691.5
1249.729639	688.25
1250.274787	688.0
1250.819878	690.75
1251.364912	688.5
1251.909891	687.5
1252.454812	687.0
1252.999677	687.5
1253.544486	689.25
1254.089238	685.5
1254.633934	690.25
1255.178573	687.75
1255.723156	684.0
1256.267682	685.0
1256.812152	686.5
1257.356565	688.0
1257.900922	684.0
1258.445223	688.0
1258.989467	688.0
1259.533654	692.5
1260.077785	707.0
1260.62186	688.25
1261.165878	687.25
1261.70984	692.5
1262.253745	689.0
1262.797594	690.5
1263.341386	696.25
1263.885123	699.5
1264.428802	706.75
1264.972425	724.75
1265.515992	750.5
1266.059503	742.5
1266.602957	720.75
1267.146354	699.0
1267.689696	696.5
1268.23298	692.75
1268.776209	688.75
1269.319381	686.75
1269.862497	688.75
1270.405556	685.75
1270.948559	685.5
1271.491506	690.0
1272.034396	686.75
1272.57723	687.25
1273.120007	689.5
1273.662728	685.75
1274.205393	685.75
1274.748002	687.5
1275.290554	688.0
1275.83305	687.5
1276.375489	686.5
1276.917872	687.0
1277.460199	689.75
1278.544684	698.0
1279.086842	689.5
1279.628943	688.25
1280.170989	690.75
1280.712978	686.0
1281.25491	693.0
1281.796787	696.0
1282.338607	697.5
1282.880371	701.75
1283.422078	714.75
1283.963729	730.5
1284.505324	777.75
1285.046863	976.5
1285.588345	1459.25
1286.129772	1638.5
1286.671142	1073.25
1287.212455	799.5
1287.753713	729.25
1288.294914	705.0
1288.836059	703.75
1289.377147	697.0
1289.91818	699.5
1290.459156	693.75
1291.000076	690.25
1291.54094	688.0
1292.081747	688.75
1292.622499	689.25
1293.163194	688.5
1293.703833	689.75
1294.244415	687.5
1294.784942	689.75
1295.325412	684.75
1295.865826	688.75
1296.406184	686.25
1296.946486	686.25
1297.486731	686.0
1298.026921	684.75
1298.567054	689.25
1299.107131	686.0
1299.647152	685.0
1300.187116	685.25
1300.727025	690.0
1301.266877	682.0
1301.806673	683.75
1302.346413	684.25
1302.886097	686.25
1303.425725	687.0
1303.965297	685.5
1304.504812	682.5
1305.044272	683.75
1305.583675	685.0
1306.123022	684.5
1306.662313	688.0
1307.201548	688.5
1307.740727	686.75
1308.279849	685.0
1308.818916	684.5
1309.357926	687.5
1309.896881	684.25
1310.435779	681.5
1310.974621	686.75
1311.513407	685.5
1312.052137	683.75
1312.590811	683.75
1313.129429	688.5
1313.667991	683.5
1314.206497	684.5
1314.744946	687.5
1315.28334	683.25
1315.821678	685.25
1316.359959	685.5
1316.898184	682.75
1317.436354	685.0
1317.974467	683.75
1318.512525	685.0
1319.050526	681.25
1319.588471	683.75
1320.12636	685.0
1320.664194	683.75
1321.201971	680.25
1321.739692	684.75
1322.277357	685.75
1322.814967	686.25
1323.35252	683.0
1323.890017	686.75
1324.427458	680.75
1324.964843	684.0
1325.502173	684.5
1326.039446	684.75
1326.576663	683.25
1327.113824	682.0
1327.65093	686.0
1328.187979	686.5
1328.724972	684.75
1329.26191	685.0
1329.798791	686.75
1330.335617	684.0
1330.872386	686.5
1331.4091	683.0
1331.945758	686.5
1332.48236	680.5
1333.018905	683.0
1333.555395	682.25
1334.091829	685.0
1334.628207	685.0
1335.164529	684.5
1335.700796	682.25
1336.237006	685.75
1336.77316	684.5
1337.309259	680.75
1337.845301	683.5
1338.381288	683.5
1338.917219	682.0
1339.453094	685.75
1339.988913	688.75
1340.524676	685.75
1341.060383	683.75
1341.596034	684.0
1342.13163	685.25
1342.66717	685.25
1343.202653	685.5
1343.738081	679.25
1344.273453	689.25
1344.80877	684.25
1345.34403	683.5
1345.879235	687.75
1346.414383	683.75
1346.949476	689.5
1347.484513	684.75
1348.019494	688.25
1348.55442	682.25
1349.089289	685.75
1349.624103	684.75
1350.158861	685.25
1350.693563	685.25
1351.228209	684.5
1351.7628	683.5
1352.297334	684.5
1352.831813	687.0
1353.366236	685.75
1353.900604	683.5
1354.434915	683.25
1354.969171	685.75
1355.503371	685.5
1356.037515	684.0
1356.571604	682.75
1357.105636	683.0
1357.639613	686.75
1358.173535	686.5
1358.7074	684.0
1359.24121	687.25
1359.774964	686.0
1360.308662	685.25
1360.842304	681.75
1361.375891	682.5
1361.909422	688.0
1362.442897	689.25
1362.976317	685.5
1363.50968	683.5
1364.042989	686.0
1364.576241	686.0
1365.109438	686.75
1365.642579	686.75
1366.175664	691.0
1366.708693	691.0
1367.241667	690.75
1367.774585	690.0
1368.307448	690.75
1368.840255	685.0
1369.373006	688.75
1369.905701	689.25
1370.438341	699.0
1370.970925	718.5
1371.503454	699.25
1372.035926	685.5
1372.568344	685.25
1373.100705	684.5
1373.633011	684.25
1374.165261	684.75
1374.697456	691.75
1375.229595	687.0
1375.761678	687.0
1376.293705	689.0
1376.825677	691.0
1377.357594	687.25
1377.889455	684.5
1378.42126	689.5
1378.953009	688.0
1379.484703	688.5
1380.016342	688.75
1380.547924	690.5
1381.079452	686.25
1381.610923	691.25
1382.142339	692.25
1382.673699	692.0
1383.205004	689.25
1383.736253	694.0
1384.267447	692.25
1384.798585	698.0
1385.329668	699.5
1385.860695	705.5
1386.391666	717.5
1386.922582	727.0
1387.453442	753.25
1387.984247	826.25
1388.514996	1229.25
1389.04569	2336.0
1389.576328	2089.5
1390.10691	1050.0
1390.637437	776.5
1391.167909	726.25
1391.698325	720.5
1392.228685	707.0
1392.75899	699.25
1393.28924	698.0
1393.819434	697.5
1394.349572	695.5
1394.879655	693.75
1395.409683	688.5
1395.939655	686.75
1396.469571	690.0
1396.999432	692.5
1397.529237	690.5
1398.058987	687.75
1398.588682	686.25
1399.118321	686.75
1399.647905	688.25
1400.177433	689.5
1400.706906	690.0
1401.236323	688.0
1401.765685	690.25
1402.294991	688.5
1402.824242	689.25
1403.353437	684.75
1403.882577	684.0
1404.411662	684.0
1404.940691	686.0
1405.469665	687.5
1405.998583	691.75
1406.527446	690.25
1407.056253	688.25
1407.585005	691.5
1408.113702	693.25
1408.642343	696.25
1409.170929	708.75
1409.69946	729.75
1410.227935	789.25
1410.756354	825.25
1411.284719	754.25
1411.813028	708.0
1412.341281	698.75
1412.869479	695.25
1413.397622	690.5
1413.92571	689.25
1414.453742	688.5
1414.981718	686.75
1415.50964	697.0
1416.037506	688.5
1416.565316	684.0
1417.093072	682.25
1417.620772	683.5
1418.148416	681.25
1418.676005	686.25
1419.203539	686.25
1419.731018	686.25
1420.258441	685.0
1420.785809	686.25
1421.313122	687.75
1421.840379	688.25
1422.367582	685.75
1422.894728	684.25
1423.42182	684.75
1423.948856	689.0
1424.475837	684.75
1425.002762	685.0
1425.529633	689.5
1426.056448	682.0
1426.583207	689.75
1427.109912	683.5
1427.636561	690.25
1428.163155	686.0
1428.689694	682.75
1429.216177	682.0
1429.742605	685.75
1430.268978	683.25
1430.795296	682.75
1431.321558	681.75
1431.847765	683.5
1432.373917	687.25
1432.900014	685.25
1433.426056	685.0
1433.952042	683.25
1434.477973	680.0
1435.003849	684.0
1435.529669	684.0
1436.055435	680.0
1436.581145	685.5
1437.1068	683.5
1437.632399	684.75
1438.157944	682.0
1438.683433	686.0
1439.208868	681.75
1439.734247	685.25
1440.25957	681.5
1440.784839	683.75
1441.310053	680.25
1441.835211	680.0
1442.360314	682.0
1442.885362	680.75
1443.410355	683.5
1443.935292	682.75
1444.460175	684.25
1444.985002	684.5
1445.509774	683.75
1446.034491	682.0
1446.559153	684.75
1447.08376	684.0
1447.608312	679.75
1448.132808	685.5
1448.65725	680.5
1449.181636	687.25
1449.705967	680.5
1450.230243	681.5
1450.754464	678.5
1451.27863	684.25
1451.802741	683.5
1452.326797	677.75
1452.850797	679.75
1453.374743	678.75
1453.898633	679.5
1454.422468	683.75
1454.946249	678.5
1455.469974	680.0
1455.993644	679.5
1456.517259	680.5
1457.040819	679.75
1457.564324	679.5
1458.087773	681.5
1458.611168	678.25
1459.134508	678.5
1459.657793	681.0
1460.181022	680.25
1460.704197	684.0
1461.227316	681.0
1461.750381	681.5
1462.27339	681.25
1462.796345	686.75
1463.319244	693.5
1463.842089	687.0
1464.364878	680.75
1464.887613	682.75
1465.410292	681.0
1465.932916	678.5
1466.455486	679.0
1466.978	682.75
1467.50046	679.75
1468.022864	677.25
1468.545214	679.5
1469.067508	677.5
1469.589748	678.5
1470.111932	676.0
1470.634062	683.0
1471.156136	684.0
1471.678156	680.5
1472.20012	679.75
1472.72203	676.75
1473.243885	681.0
1473.765685	680.0
1474.28743	683.0
1474.80912	682.75
1475.330755	681.25
1475.852335	682.75
1476.37386	678.5
1476.89533	677.25
1477.416745	676.5
1477.938106	678.5
1478.459411	678.0
1478.980662	680.0
1479.501857	678.75
1480.022998	678.25
1480.544084	681.0
1481.065115	680.0
1481.586091	679.25
1482.107012	679.25
1482.627878	674.75
1483.14869	681.25
1483.669446	677.75
1484.190148	676.5
1484.710794	682.75
1485.231386	680.25
1485.751923	677.75
1486.272406	678.5
1486.792833	684.75
1487.313205	679.5
1487.833523	677.75
1488.353786	677.25
1488.873994	677.0
1489.394147	676.25
1489.914245	681.25
1490.434288	675.5
1490.954277	678.0
1491.474211	679.75
1491.99409	681.25
1492.513914	678.0
1493.033683	677.25
1493.553398	678.0
1494.073057	682.0
1494.592662	678.75
1495.112212	676.0
1495.631708	678.5
1496.151148	680.25
1496.670534	680.75
1497.189865	681.25
1497.709141	678.75
1498.228362	679.5
1498.747529	679.75
1499.266641	678.25
1499.785698	691.0
1500.3047	682.75
1500.823648	678.75
1501.34254	676.0
1501.861379	679.25
1502.380162	677.5
1502.89889	678.0
1503.417564	677.75
1503.936183	677.5
1504.454748	676.75
1504.973257	679.25
1505.491712	676.5
1506.010112	679.0
1506.528458	678.5
1507.046748	680.5
1507.564984	674.75
1508.083166	681.5
1508.601292	677.5
1509.119364	680.75
1509.637381	678.5
1510.155344	678.5
1510.673252	691.25
1511.191105	678.0
1511.708903	679.25
1512.226647	676.0
1512.744336	679.5
1513.261971	677.0
1513.77955	681.5
1514.297076	680.5
1514.814546	677.0
1515.331962	677.0
1515.849323	678.5
1516.366629	675.25
1516.883881	679.75
1517.401078	677.0
1517.918221	680.5
1518.435309	680.5
1518.952342	680.25
1519.469321	677.5
1519.986245	679.25
1520.503114	677.25
1521.019929	682.0
1521.536689	677.5
1522.053395	676.75
1522.570046	677.75
1523.086642	679.0
1523.603184	680.0
1524.119671	681.0
1524.636103	679.5
1525.152481	678.5
1525.668805	680.5
1526.185073	683.0
1526.701288	684.0
1527.217447	676.75
1527.733552	676.25
1528.249603	680.25
1528.765599	675.0
1529.28154	681.0
1529.797427	680.5
1530.313259	678.5
1530.829037	677.5
1531.34476	681.0
1531.860429	680.5
1532.376043	682.0
1532.891602	676.5
1533.407107	680.25
1533.922558	678.0
1534.437954	676.0
1534.953295	677.5
1535.468582	677.5
1535.983815	680.75
1536.498993	678.25
1537.014116	677.25
1537.529185	676.5
1538.044199	678.25
1538.559159	679.75
1539.074064	680.25
1539.588915	674.75
1540.103712	678.25
1540.618454	680.25
1541.133141	678.0
1541.647774	680.0
1542.162353	679.0
1542.676877	679.25
1543.191346	676.5
1543.705761	679.5
1544.220122	678.0
1544.734428	679.25
1545.24868	677.5
1545.762877	681.0
1546.27702	678.75
1546.791109	679.25
1547.305143	676.5
1547.819122	679.25
1548.333047	679.25
1548.846918	681.5
1549.360734	678.5
1549.874496	679.25
1550.388204	679.25
1550.901857	675.0
1551.415455	675.25
1551.929	675.25
1552.442489	679.75
1552.955925	678.75
1553.469306	681.0
1553.982632	677.25
1554.495905	676.0
1555.009123	673.75
1555.522286	680.0
1556.035395	678.5
1556.54845	679.5
1557.06145	680.0
1557.574396	679.5
1558.087288	679.75
1558.600125	679.75
1559.112908	678.5
1559.625637	678.5
1560.138311	679.25
1560.650931	675.5
1561.163497	678.0
1561.676008	680.75
1562.188465	676.25
1562.700867	679.0
1563.213216	680.25
1563.725509	675.5
1564.237749	680.0
1564.749934	681.5
1565.262065	679.5
1565.774142	677.75
1566.286164	679.75
1566.798132	679.0
1567.310046	676.25
1567.821906	678.75
1568.333711	677.75
1568.845462	677.75
1569.357158	679.75
1569.868801	679.25
1570.380389	682.75
1570.891922	681.75
1571.403402	676.25
1571.914827	679.0
1572.426198	678.75
1572.937515	676.5
1573.448777	676.25
1573.959985	679.5
1574.471139	679.25
1574.982239	675.5
1575.493285	676.5
1576.004276	678.0
1576.515213	677.0
1577.026096	677.25
1577.536924	680.75
1578.047698	678.25
1578.558419	679.25
1579.069084	674.25
1579.579696	675.5
1580.090254	678.25
1580.600757	675.75
1581.111206	674.0
1581.621601	678.75
1582.131941	678.5
1582.642228	679.75
1583.15246	678.0
1583.662638	677.0
1584.172762	677.5
1584.682832	678.5
1585.192847	678.25
1585.702809	679.75
1586.212716	678.25
1586.722569	679.25
1587.232368	677.25
1587.742113	679.0
1588.251803	675.75
1588.76144	672.5
1589.271022	676.25
1589.78055	678.0
1590.290024	676.0
1590.799444	677.75
1591.30881	676.0
1591.818121	678.25
1592.327379	675.25
